12847
0
441
408
473
422
523
439
487
428
457
463
410
441
362
432
392
464
418
415
422
323
459
548
768
717
704
557
429
416
343
381
360
471
398
453
472
424
461
398
463
415
510
444
501
524
472
491
448
539
510
584
526
561
601
513
521
480
538
440
469
432
423
418
356
387
308
372
366
444
387
335
 384
 366
 453
 385
 423
 413
 463
 464
 397
 415
 387
 460
 405
 453
 422
 448
 431
 381
 460
 424
 454
 406
 494
 488
 457
 463
 448
 543
 502
 568
 527
 553
 549
 588
 564
 455
 499
 459
 512
 480
 543
 555
 527
 556
 496
 639
 722
 844
 844
 855
 743
 586
 540
 483
 572
 521
 575
 531
 525
 536
 516
 603
 547
 598
 567
 657
 649
 613
 613
 561
 615
 599
 680
 625
 689
 721
 711
 704
 611
 639
 575
 621
 559
 584
 561
 504
 524
 455
 517
 439
 471
 436
 476
 467
 413
 478
 421
 491
 413
 502
 475
 471
 467
 441
 480
 423
 487
 436
 495
 492
 458
 488
 438
 463
 424
 505
 459
 510
 469
 435
 488
 440
 504
 466
 541
 481
 513
 508
 433
 472
 409
 472
 411
 476
 415
 443
 450
 398
 523
 614
 846
 845
 846
 671
 519
 441
 372
 451
 408
 483
 419
 483
 460
 460
 502
 460
 539
 487
 564
 508
 565
 568
 557
 606
 555
 634
 573
 647
 596
 632
 639
 604
 630
 536
 593
 513
 563
 499
 506
 495
 433
 487
 429
 496
 425
 492
 455
 458
 484
 428
 485
 426
 496
 431
 488
 455
 455
 487
 428
 494
 424
 480
 423
 471
 455
 425
 480
 425
 491
 427
 496
 448
 497
 504
 469
 523
 455
 516
 433
 485
 433
 448
 454
 396
 457
 396
 451
 384
 458
 541
 725
 845
 793
 768
 527
 477
 372
 448
 439
 420
 456
 405
 475
 419
 491
 432
 488
 496
 467
 524
 473
 545
 492
 575
 533
 584
 591
 555
 611
 561
 632
 568
 621
 561
 554
 560
 473
 501
 425
 491
 408
 452
 406
 406
 423
 363
 419
 364
 435
 391
 451
 428
 414
 449
 385
 452
 396
 462
 405
 449
 439
 411
 463
 398
 453
 400
 473
 429
 471
 483
 439
 496
 424
 480
 404
 453
 409
 419
 432
 363
 424
 365
 434
 361
 435
 515
 671
 846
 811
 783
 556
 492
 371
 427
 428
 408
 449
 385
 451
 396
 473
 426
 476
 475
 454
 505
 455
 533
 483
 563
 521
 562
 583
 545
 597
 534
 608
 540
 601
 548
 533
 526
 450
 487
 413
 472
 398
 445
 399
 387
 422
 356
 412
 353
 428
 374
 429
 409
 384
 431
 376
 437
 373
 441
 391
 439
 423
 394
 435
 372
 437
 385
 448
 406
 432
 455
 411
 476
 413
 487
 421
 479
 425
 420
 428
 372
 432
 371
 439
 376
 429
 387
 412
 543
 664
 845
 812
 783
 557
 472
 397
 388
 441
 385
 448
 387
 467
 425
 463
 463
 448
 501
 444
 521
 469
 537
 492
 526
 560
 521
 589
 540
 614
 549
 611
 564
 570
 575
 498
 537
 455
 504
 416
 461
 414
 384
 415
 364
 425
 355
 421
 370
 428
 408
 389
 422
 359
 432
 371
 440
 385
 424
 421
 384
 433
 371
 436
 384
 448
 409
 437
 445
 405
 475
 419
 486
 425
 496
 449
 448
 453
 380
 432
 359
 433
 383
 448
 412
 376
 417
 433
 639
 768
 844
 797
 684
 507
 390
 425
 377
 448
 387
 455
 411
 451
 449
 414
 480
 425
 498
 442
 523
 480
 515
 543
 505
 573
 517
 591
 537
 610
 570
 563
 584
 517
 566
 483
 527
 448
 478
 432
 409
 434
 362
 416
 351
 428
 365
 409
 399
 367
 408
 350
 417
 357
 428
 385
 419
 428
 373
 421
 356
 423
 367
 435
 388
 411
 425
 371
 423
 372
 453
 400
 468
 448
 449
 476
 415
 475
 402
 442
 371
 423
 389
 384
 428
 363
 423
 346
 415
 433
 622
 797
 844
 841
 639
 541
 384
 433
 399
 427
 420
 387
 448
 393
 467
 406
 479
 451
 475
 501
 449
 516
 469
 548
 498
 567
 547
 551
 594
 543
 597
 537
 601
 529
 568
 524
 492
 512
 419
 459
 385
 448
 384
 411
 391
 354
 409
 352
 423
 368
 427
 384
 426
 423
 374
 423
 357
 423
 367
 437
 385
 396
 415
 359
 415
 358
 435
 377
 427
 393
 412
 446
 384
 448
 396
 479
 417
 468
 449
 427
 454
 377
 428
 364
 431
 381
 420
 409
 365
 406
 352
 503
 604
 841
 828
 773
 610
 428
 399
 339
 437
 391
 460
 423
 431
 452
 412
 492
 436
 505
 448
 519
 492
 497
 536
 492
 568
 519
 597
 543
 608
 585
 567
 606
 536
 587
 515
 567
 492
 512
 475
 423
 449
 371
 421
 358
 428
 373
 396
 409
 364
 423
 357
 430
 362
 431
 397
 408
 429
 375
 434
 377
 440
 370
 436
 407
 402
 435
 371
 433
 375
 449
 393
 457
 459
 440
 479
 412
 476
 414
 467
 384
 423
 411
 377
 428
 363
 423
 358
 413
 386
 527
 700
 793
 841
 720
 624
 424
 420
 387
 421
 441
 376
 439
 391
 472
 413
 478
 448
 444
 489
 435
 507
 460
 537
 483
 542
 548
 529
 584
 526
 582
 521
 592
 527
 558
 540
 472
 495
 411
 456
 374
 428
 378
 388
 395
 337
 400
 335
 397
 340
 424
 384
 384
 401
 348
 403
 345
 422
 367
 428
 391
 380
 423
 368
 419
 352
 428
 377
 426
 407
 379
 427
 368
 429
 372
 454
 408
 454
 456
 418
 467
 396
 451
 376
 435
 387
 397
 417
 373
 428
 359
 417
 345
 471
 560
 768
 845
 796
 728
 499
 451
 368
 428
 415
 401
 448
 389
 462
 400
 473
 430
 489
 469
 445
 508
 462
 533
 480
 564
 526
 572
 587
 543
 597
 538
 612
 543
 606
 543
 539
 524
 455
 495
 417
 471
 396
 445
 397
 399
 422
 361
 419
 356
 426
 366
 431
 405
 374
 419
 371
 437
 371
 441
 388
 436
 422
 393
 440
 384
 453
 385
 449
 394
 425
 437
 390
 444
 388
 464
 408
 475
 441
 472
 487
 433
 483
 419
 473
 399
 455
 415
 416
 449
 385
 453
 392
 439
 369
 487
 598
 775
 841
 811
 745
 526
 480
 395
 452
 448
 415
 461
 403
 478
 423
 497
 458
 484
 504
 467
 530
 473
 551
 502
 582
 555
 587
 615
 568
 624
 567
 637
 569
 620
 581
 547
 543
 461
 505
 426
 481
 401
 450
 422
 397
 432
 364
 432
 371
 448
 400
 436
 422
 390
 441
 379
 455
 392
 453
 403
 437
 436
 387
 441
 389
 468
 399
 454
 409
 423
 448
 396
 455
 396
 473
 425
 492
 462
 451
 496
 440
 505
 445
 511
 440
 477
 438
 408
 455
 391
 454
 385
 452
 387
 440
 529
 647
 844
 813
 782
 554
 487
 376
 413
 444
 411
 467
 411
 485
 430
 501
 467
 483
 523
 465
 519
 469
 548
 505
 584
 560
 563
 605
 557
 627
 571
 637
 575
 624
 587
 542
 565
 481
 520
 435
 487
 419
 448
 427
 384
 429
 361
 419
 357
 426
 384
 416
 428
 380
 429
 369
 443
 377
 448
 414
 423
 441
 375
 432
 371
 440
 379
 435
 405
 403
 439
 379
 448
 384
 454
 409
 467
 460
 435
 480
 415
 468
 392
 444
 390
 423
 406
 368
 419
 361
 424
 345
 436
 493
 699
 841
 817
 780
 555
 491
 372
 429
 409
 407
 427
 381
 448
 394
 466
 412
 483
 464
 448
 492
 445
 513
 468
 550
 504
 564
 566
 535
 588
 533
 600
 532
 590
 525
 540
 515
 448
 475
 395
 452
 376
 424
 374
 386
 393
 337
 391
 339
 417
 355
 420
 376
 379
 409
 356
 409
 352
 423
 364
 418
 395
 384
 423
 355
 416
 358
 434
 373
 407
 395
 372
 420
 367
 429
 369
 445
 399
 435
 436
 399
 464
 406
 470
 405
 468
 409
 405
 412
 343
 414
 361
 426
 357
 409
 364
 421
 573
 697
 842
 775
 737
 515
 448
 390
 384
 429
 367
 432
 390
 463
 399
 453
 445
 428
 479
 423
 493
 444
 524
 487
 536
 541
 507
 581
 529
 594
 533
 606
 562
 563
 561
 489
 525
 441
 480
 394
 445
 393
 387
 415
 352
 397
 331
 409
 356
 404
 384
 363
 411
 347
 407
 352
 422
 365
 421
 413
 371
 412
 347
 420
 362
 430
 382
 407
 411
 368
 419
 354
 432
 365
 429
 388
 419
 437
 384
 443
 399
 472
 412
 477
 433
 427
 448
 371
 424
 360
 428
 366
 409
 390
 371
 391
 355
 524
 639
 844
 824
 787
 615
 436
 415
 356
 439
 376
 440
 391
 432
 451
 407
 469
 417
 493
 441
 512
 473
 502
 535
 493
 557
 508
 597
 552
 615
 584
 575
 601
 532
 584
 509
 557
 469
 499
 452
 419
 448
 372
 423
 353
 419
 364
 408
 403
 369
 415
 357
 422
 363
 432
 388
 415
 413
 367
 425
 364
 433
 371
 438
 395
 411
 423
 366
 423
 375
 451
 384
 443
 416
 408
 438
 388
 455
 404
 481
 425
 487
 465
 441
 467
 408
 451
 374
 441
 385
 428
 423
 380
 430
 361
 434
 463
 697
 804
 843
 779
 564
 476
 350
 427
 387
 457
 415
 440
 466
 407
 472
 422
 495
 441
 516
 502
 503
 527
 477
 551
 513
 596
 547
 615
 592
 567
 615
 555
 615
 542
 596
 510
 527
 501
 440
 471
 390
 448
 372
 429
 376
 404
 401
 356
 417
 368
 435
 363
 436
 404
 409
 431
 374
 426
 364
 439
 384
 440
 409
 409
 436
 371
 432
 377
 451
 388
 444
 423
 398
 448
 396
 472
 418
 496
 437
 463
 448
 401
 436
 368
 431
 363
 428
 384
 414
 408
 345
 443
 508
 752
 798
 839
 707
 560
 455
 356
 425
 384
 448
 384
 454
 428
 432
 463
 403
 473
 421
 500
 451
 516
 504
 491
 551
 496
 568
 515
 602
 557
 601
 575
 538
 583
 508
 551
 466
 515
 440
 439
 432
 369
 424
 358
 415
 347
 411
 376
 387
 404
 352
 405
 344
 418
 362
 426
 397
 391
 423
 361
 429
 371
 440
 371
 415
 399
 384
 429
 370
 429
 373
 456
 414
 467
 461
 419
 471
 409
 468
 387
 437
 379
 406
 413
 368
 424
 367
 432
 346
 444
 506
 709
 843
 797
 752
 522
 463
 359
 436
 407
 400
 432
 380
 443
 392
 467
 419
 469
 449
 450
 497
 448
 521
 476
 552
 503
 560
 566
 542
 598
 540
 597
 536
 603
 540
 536
 515
 446
 481
 393
 439
 368
 427
 373
 387
 398
 341
 408
 352
 415
 343
 409
 380
 371
 409
 347
 412
 355
 427
 361
 423
 399
 384
 415
 351
 412
 353
 432
 376
 420
 413
 381
 432
 376
 460
 407
 477
 426
 459
 455
 397
 428
 353
 423
 360
 424
 376
 391
 409
 343
 390
 377
 588
 711
 842
 811
 686
 556
 372
 404
 358
 437
 376
 434
 415
 399
 443
 392
 463
 409
 486
 448
 504
 502
 469
 536
 480
 555
 509
 589
 543
 583
 589
 542
 584
 515
 583
 509
 537
 451
 453
 448
 371
 415
 352
 422
 355
 408
 369
 380
 406
 343
 410
 348
 412
 355
 413
 385
 376
 423
 361
 415
 360
 433
 370
 403
 399
 369
 427
 365
 421
 359
 434
 389
 425
 423
 387
 451
 399
 477
 412
 467
 417
 419
 419
 359
 419
 353
 424
 355
 424
 377
 372
 419
 485
 710
 807
 843
 737
 611
 439
 364
 415
 369
 435
 370
 448
 395
 451
 439
 417
 472
 415
 492
 437
 513
 470
 516
 525
 502
 580
 519
 589
 527
 603
 561
 575
 588
 519
 560
 470
 511
 424
 468
 404
 392
 416
 355
 410
 344
 412
 354
 415
 396
 367
 405
 352
 415
 353
 419
 364
 420
 406
 372
 415
 353
 425
 368
 439
 376
 399
 407
 365
 425
 367
 439
 377
 455
 419
 449
 472
 428
 472
 397
 462
 385
 435
 398
 387
 412
 345
 417
 368
 431
 353
 435
 519
 692
 844
 830
 770
 533
 477
 371
 420
 412
 388
 439
 379
 454
 403
 479
 436
 468
 473
 439
 505
 449
 528
 480
 563
 532
 565
 583
 540
 611
 551
 605
 543
 604
 547
 524
 534
 452
 491
 406
 454
 384
 441
 405
 380
 405
 343
 410
 355
 433
 379
 416
 407
 384
 422
 352
 421
 365
 440
 387
 423
 430
 377
 423
 365
 433
 384
 452
 400
 415
 435
 384
 444
 384
 457
 408
 480
 448
 444
 477
 413
 468
 393
 449
 384
 430
 399
 385
 436
 369
 419
 348
 460
 528
 768
 841
 790
 708
 481
 444
 355
 439
 410
 451
 449
 399
 455
 403
 481
 425
 504
 465
 487
 507
 457
 531
 488
 564
 519
 591
 579
 575
 613
 545
 603
 541
 603
 535
 569
 519
 473
 484
 402
 457
 385
 436
 365
 395
 390
 352
 408
 350
 416
 350
 426
 384
 415
 422
 374
 423
 365
 433
 373
 442
 399
 407
 423
 366
 432
 376
 449
 384
 443
 415
 422
 455
 399
 474
 414
 484
 423
 467
 432
 395
 432
 359
 415
 355
 429
 379
 413
 392
 366
 519
 647
 844
 835
 813
 580
 463
 407
 363
 431
 374
 440
 379
 449
 428
 433
 459
 408
 482
 429
 503
 449
 518
 499
 510
 556
 501
 575
 527
 608
 553
 601
 575
 535
 567
 480
 520
 439
 489
 409
 439
 420
 366
 405
 339
 400
 342
 407
 356
 384
 395
 344
 393
 335
 412
 352
 421
 387
 385
 411
 355
 416
 349
 416
 364
 426
 389
 384
 428
 360
 410
 352
 432
 385
 435
 431
 408
 462
 405
 463
 397
 467
 399
 415
 408
 362
 412
 345
 412
 350
 421
 363
 392
 501
 614
 824
 810
 797
 594
 503
 388
 384
 423
 367
 424
 369
 448
 391
 448
 428
 421
 475
 423
 491
 437
 519
 475
 526
 532
 516
 575
 521
 596
 540
 609
 555
 572
 560
 503
 536
 449
 487
 406
 452
 396
 392
 412
 343
 391
 335
 414
 350
 407
 377
 377
 408
 348
 412
 357
 415
 364
 416
 403
 379
 418
 357
 423
 364
 432
 372
 422
 408
 376
 425
 368
 434
 369
 448
 401
 428
 448
 414
 470
 409
 475
 413
 469
 427
 403
 413
 361
 427
 366
 436
 372
 429
 377
 377
 517
 619
 843
 839
 831
 628
 523
 422
 392
 439
 372
 440
 386
 467
 420
 460
 461
 429
 493
 441
 511
 461
 540
 499
 528
 553
 520
 592
 540
 620
 572
 632
 581
 574
 583
 513
 543
 460
 511
 431
 461
 420
 390
 425
 362
 424
 358
 428
 369
 403
 397
 366
 415
 356
 421
 370
 448
 400
 422
 417
 366
 421
 368
 444
 384
 448
 401
 410
 448
 379
 432
 368
 442
 385
 449
 419
 424
 461
 405
 471
 415
 486
 438
 489
 457
 416
 451
 378
 442
 379
 441
 384
 431
 423
 379
 422
 427
 630
 743
 843
 797
 650
 502
 363
 417
 384
 463
 401
 463
 438
 439
 480
 419
 483
 434
 517
 463
 529
 511
 507
 560
 507
 581
 527
 611
 567
 615
 603
 572
 618
 551
 585
 500
 556
 480
 485
 459
 391
 433
 365
 428
 356
 419
 369
 387
 408
 352
 413
 354
 427
 377
 441
 401
 399
 431
 371
 423
 365
 440
 380
 436
 405
 384
 435
 378
 436
 375
 448
 391
 435
 451
 427
 475
 409
 472
 415
 480
 408
 416
 422
 377
 427
 362
 425
 362
 430
 384
 389
 500
 600
 824
 816
 799
 590
 510
 403
 392
 432
 376
 432
 375
 455
 404
 461
 449
 435
 491
 430
 506
 453
 529
 492
 538
 536
 519
 575
 528
 603
 551
 620
 560
 568
 569
 502
 535
 451
 497
 414
 457
 411
 401
 415
 342
 397
 341
 412
 356
 415
 388
 372
 408
 352
 409
 360
 433
 376
 406
 402
 372
 424
 356
 419
 364
 435
 381
 409
 413
 372
 426
 360
 428
 372
 440
 399
 416
 444
 400
 470
 411
 484
 419
 471
 424
 409
 422
 353
 415
 359
 427
 367
 420
 387
 355
 448
 499
 737
 795
 843
 721
 579
 443
 368
 429
 373
 433
 369
 448
 406
 439
 455
 413
 466
 407
 487
 442
 514
 480
 502
 539
 492
 563
 519
 596
 543
 613
 575
 565
 583
 517
 560
 477
 513
 432
 457
 421
 376
 417
 350
 407
 352
 422
 359
 399
 401
 366
 416
 348
 412
 359
 434
 384
 399
 407
 363
 419
 364
 432
 368
 429
 391
 394
 423
 363
 423
 376
 437
 371
 432
 413
 399
 433
 376
 440
 391
 475
 423
 467
 457
 425
 469
 384
 433
 368
 433
 377
 421
 415
 372
 418
 335
 424
 455
 664
 792
 845
 819
 613
 523
 379
 443
 387
 448
 408
 417
 455
 407
 469
 415
 491
 448
 511
 493
 479
 520
 465
 552
 507
 588
 548
 599
 599
 569
 615
 552
 601
 529
 583
 509
 518
 505
 440
 457
 375
 437
 372
 433
 384
 388
 410
 353
 408
 349
 418
 370
 431
 385
 387
 423
 370
 427
 364
 433
 377
 423
 412
 390
 438
 376
 428
 370
 441
 388
 432
 423
 392
 441
 376
 439
 379
 455
 414
 444
 453
 411
 479
 420
 487
 433
 495
 449
 432
 441
 376
 429
 375
 444
 381
 441
 414
 385
 449
 516
 752
 837
 842
 741
 607
 460
 380
 431
 392
 461
 395
 472
 425
 467
 473
 437
 488
 435
 519
 464
 537
 504
 533
 561
 524
 591
 543
 619
 565
 627
 587
 590
 602
 535
 575
 500
 546
 457
 488
 441
 405
 435
 367
 432
 368
 434
 376
 414
 411
 383
 425
 365
 437
 380
 447
 401
 427
 426
 381
 437
 384
 444
 377
 436
 397
 409
 439
 386
 443
 384
 454
 396
 465
 430
 437
 472
 415
 481
 421
 487
 417
 448
 403
 385
 440
 376
 433
 374
 444
 378
 408
 442
 542
 775
 815
 831
 651
 568
 409
 403
 432
 388
 446
 393
 480
 422
 481
 447
 462
 496
 451
 510
 460
 537
 496
 563
 539
 540
 589
 540
 608
 556
 636
 574
 610
 583
 535
 563
 481
 517
 430
 482
 412
 438
 419
 369
 420
 357
 424
 362
 442
 400
 409
 423
 373
 432
 376
 448
 385
 441
 398
 412
 440
 385
 440
 377
 456
 395
 442
 416
 406
 449
 398
 477
 423
 496
 435
 473
 464
 419
 448
 374
 440
 375
 440
 385
 417
 420
 360
 422
 451
 653
 752
 841
 771
 632
 514
 368
 417
 381
 451
 387
 449
 428
 431
 468
 413
 483
 429
 504
 443
 501
 501
 487
 541
 489
 575
 521
 591
 543
 596
 587
 558
 596
 516
 573
 491
 520
 444
 446
 435
 380
 422
 348
 408
 358
 417
 377
 377
 405
 347
 403
 352
 421
 363
 421
 391
 384
 420
 358
 427
 365
 432
 378
 427
 420
 388
 444
 388
 460
 408
 483
 432
 463
 451
 404
 435
 364
 429
 365
 428
 384
 399
 416
 351
 416
 441
 652
 768
 841
 783
 631
 518
 369
 419
 374
 448
 383
 440
 419
 419
 472
 411
 470
 416
 494
 448
 492
 507
 485
 539
 487
 574
 524
 588
 551
 594
 598
 543
 592
 513
 567
 483
 519
 456
 440
 440
 368
 415
 354
 415
 358
 419
 387
 381
 407
 347
 417
 365
 433
 365
 415
 406
 380
 421
 368
 432
 373
 444
 390
 434
 425
 401
 463
 411
 481
 421
 492
 438
 465
 463
 392
 432
 368
 448
 384
 431
 397
 402
 405
 360
 507
 600
 839
 837
 825
 655
 496
 434
 369
 449
 390
 455
 400
 455
 448
 422
 473
 421
 496
 435
 515
 475
 519
 532
 505
 566
 515
 596
 548
 617
 575
 591
 603
 541
 583
 505
 557
 480
 516
 448
 435
 454
 384
 423
 359
 429
 373
 436
 408
 389
 425
 372
 437
 380
 448
 392
 435
 427
 391
 441
 389
 449
 387
 458
 399
 436
 437
 399
 460
 399
 472
 422
 503
 475
 482
 497
 440
 489
 411
 463
 398
 451
 409
 415
 445
 378
 432
 361
 449
 492
 695
 837
 842
 817
 607
 525
 385
 457
 408
 449
 437
 416
 468
 411
 485
 423
 499
 465
 499
 517
 470
 535
 489
 575
 519
 599
 573
 581
 608
 556
 612
 551
 619
 554
 596
 536
 508
 519
 436
 469
 391
 454
 386
 423
 415
 386
 431
 371
 439
 377
 439
 391
 435
 423
 387
 437
 384
 448
 373
 451
 415
 434
 440
 390
 446
 389
 459
 396
 470
 429
 434
 458
 407
 469
 423
 503
 449
 512
 480
 448
 463
 386
 443
 384
 460
 398
 440
 429
 396
 423
 387
 564
 696
 844
 835
 768
 591
 428
 436
 385
 459
 397
 476
 433
 448
 469
 428
 488
 444
 521
 472
 537
 500
 513
 553
 509
 580
 533
 613
 569
 622
 593
 568
 608
 547
 592
 511
 562
 485
 516
 471
 426
 466
 388
 432
 364
 432
 384
 412
 423
 378
 435
 373
 435
 366
 433
 399
 408
 432
 376
 432
 384
 448
 377
 441
 415
 408
 444
 368
 448
 395
 453
 388
 450
 459
 453
 483
 397
 480
 419
 476
 421
 460
 465
 412
 451
 363
 442
 369
 445
 399
 436
 413
 368
 567
 667
 843
 845
 828
 583
 497
 443
 407
 480
 415
 459
 402
 467
 448
 453
 508
 441
 504
 467
 543
 484
 513
 539
 532
 583
 551
 608
 572
 649
 589
 608
 608
 551
 591
 524
 567
 497
 532
 465
 439
 470
 425
 449
 385
 460
 389
 469
 446
 450
 470
 415
 446
 415
 539
 484
 527
 519
 509
 530
 459
 472
 443
 575
 527
 519
 509
 502
 519
 483
 555
 481
 537
 505
 545
 527
 513
 575
 530
 549
 523
 609
 551
 528
 503
 453
 444
 385
 433
 405
 419
 379
 460
 590
 768
 821
 768
 686
 529
 408
 368
 366
 359
 360
 368
 378
 423
 402
 415
 361
 404
 430
 465
 419
 450
 493
 508
 533
 539
 555
 541
 511
 503
 560
 575
 523
 506
 467
 455
 477
 411
 415
 377
 391
 368
 356
 352
 310
 370
 341
 379
 337
 385
 364
 343
 341
 305
 363
 361
 378
 323
 390
 374
 357
 361
 333
 345
 323
 387
 345
 358
 353
 352
 374
 353
 386
 351
 391
 384
 407
 422
 393
 430
 403
 430
 391
 412
 364
 353
 377
 378
 384
 343
 400
 355
 392
 316
 432
 540
 708
 842
 843
 771
 606
 496
 428
 426
 488
 432
 420
 401
 412
 355
 345
 352
 335
 415
 452
 495
 422
 496
 475
 473
 495
 497
 534
 496
 575
 560
 583
 521
 469
 519
 466
 480
 415
 461
 397
 430
 395
 363
 371
 329
 381
 313
 355
 355
 364
 347
 333
 396
 357
 407
 363
 385
 354
 391
 407
 348
 393
 366
 409
 364
 397
 398
 369
 407
 336
 384
 319
 385
 343
 391
 371
 375
 423
 368
 428
 377
 437
 384
 432
 400
 355
 391
 323
 377
 311
 375
 334
 357
 348
 300
 398
 489
 743
 795
 812
 632
 483
 387
 318
 375
 324
 385
 332
 399
 373
 377
 414
 354
 417
 387
 476
 421
 473
 453
 453
 496
 452
 524
 485
 564
 501
 543
 531
 493
 533
 462
 508
 431
 471
 397
 401
 385
 335
 379
 299
 364
 311
 384
 338
 352
 368
 316
 369
 314
 384
 336
 391
 361
 357
 394
 339
 386
 333
 400
 336
 391
 369
 359
 398
 344
 404
 351
 425
 384
 433
 435
 405
 449
 380
 428
 348
 399
 347
 384
 384
 341
 396
 333
 379
 324
 465
 582
 768
 824
 701
 615
 424
 406
 345
 415
 395
 384
 431
 372
 441
 377
 463
 408
 465
 448
 441
 500
 436
 512
 455
 548
 504
 560
 569
 527
 596
 524
 587
 504
 575
 503
 517
 501
 417
 449
 367
 424
 344
 412
 358
 368
 379
 327
 384
 327
 395
 340
 405
 379
 376
 408
 358
 415
 357
 422
 370
 422
 408
 375
 415
 365
 427
 376
 440
 392
 418
 423
 392
 448
 397
 468
 416
 480
 432
 452
 455
 388
 417
 356
 419
 367
 423
 390
 384
 399
 327
 439
 509
 768
 821
 843
 719
 527
 448
 341
 411
 355
 433
 370
 423
 408
 390
 441
 392
 463
 413
 483
 448
 487
 499
 476
 537
 495
 567
 524
 595
 564
 579
 600
 538
 585
 511
 563
 481
 510
 456
 430
 435
 364
 407
 343
 413
 348
 404
 385
 368
 401
 346
 407
 355
 419
 372
 409
 410
 380
 423
 376
 427
 376
 433
 391
 423
 429
 382
 429
 380
 443
 395
 454
 425
 438
 473
 427
 482
 421
 480
 415
 454
 407
 396
 426
 372
 427
 368
 433
 369
 403
 431
 530
 771
 837
 843
 708
 608
 429
 409
 415
 390
 436
 379
 444
 399
 467
 422
 448
 468
 428
 483
 439
 516
 468
 540
 521
 533
 574
 530
 588
 545
 611
 556
 605
 569
 548
 557
 478
 505
 437
 476
 405
 423
 411
 372
 413
 361
 415
 364
 422
 377
 409
 416
 380
 427
 375
 435
 384
 432
 397
 411
 430
 377
 429
 372
 440
 387
 443
 417
 419
 448
 396
 456
 411
 485
 432
 481
 455
 422
 444
 371
 429
 371
 434
 384
 421
 418
 369
 407
 403
 595
 721
 843
 780
 655
 515
 375
 411
 372
 448
 391
 455
 423
 436
 467
 419
 480
 428
 498
 454
 519
 495
 505
 543
 508
 575
 532
 608
 560
 614
 602
 573
 607
 539
 583
 510
 543
 470
 473
 452
 399
 435
 372
 424
 359
 421
 377
 400
 413
 363
 415
 364
 431
 379
 437
 406
 406
 432
 376
 429
 376
 440
 385
 435
 413
 405
 443
 388
 453
 409
 481
 435
 475
 461
 423
 457
 384
 425
 364
 429
 377
 412
 412
 369
 399
 340
 467
 555
 807
 843
 816
 708
 496
 440
 357
 432
 384
 433
 409
 414
 443
 393
 453
 405
 475
 432
 489
 478
 467
 515
 469
 539
 497
 571
 532
 574
 575
 540
 588
 521
 567
 498
 539
 467
 471
 456
 391
 426
 355
 410
 352
 409
 369
 377
 399
 348
 397
 343
 411
 357
 415
 385
 387
 415
 359
 413
 360
 423
 369
 421
 403
 380
 422
 365
 424
 369
 435
 391
 435
 444
 419
 469
 415
 471
 409
 455
 390
 401
 408
 359
 412
 357
 419
 359
 400
 376
 475
 652
 770
 841
 772
 682
 479
 441
 393
 391
 428
 370
 432
 384
 448
 400
 449
 448
 423
 476
 427
 494
 449
 524
 485
 532
 541
 517
 575
 529
 594
 534
 590
 542
 547
 547
 474
 501
 423
 463
 392
 436
 392
 384
 403
 345
 400
 346
 409
 356
 412
 387
 372
 407
 351
 407
 353
 419
 370
 411
 408
 370
 415
 364
 421
 365
 428
 377
 411
 419
 384
 433
 377
 448
 405
 473
 440
 448
 465
 407
 448
 374
 428
 365
 422
 389
 387
 415
 355
 394
 341
 485
 580
 807
 841
 803
 710
 491
 441
 364
 436
 391
 422
 422
 399
 451
 399
 463
 415
 483
 444
 477
 496
 457
 518
 471
 543
 503
 574
 548
 559
 589
 533
 588
 527
 581
 507
 544
 492
 457
 467
 391
 430
 363
 422
 368
 405
 391
 366
 412
 353
 414
 359
 422
 371
 412
 409
 374
 423
 368
 425
 368
 430
 389
 409
 427
 374
 425
 373
 444
 388
 448
 415
 427
 460
 415
 480
 422
 483
 423
 472
 429
 399
 427
 370
 430
 376
 436
 384
 415
 391
 390
 547
 683
 839
 771
 724
 519
 440
 408
 379
 443
 389
 455
 403
 467
 437
 456
 481
 432
 491
 444
 518
 472
 541
 515
 529
 568
 524
 588
 545
 615
 562
 610
 587
 557
 581
 503
 536
 457
 500
 428
 443
 423
 385
 424
 364
 420
 360
 421
 376
 400
 410
 368
 418
 364
 432
 373
 433
 401
 403
 432
 378
 427
 373
 435
 384
 439
 413
 407
 448
 394
 460
 418
 489
 435
 475
 459
 423
 451
 375
 428
 369
 434
 379
 413
 408
 367
 399
 357
 531
 635
 841
 839
 786
 639
 450
 422
 359
 436
 384
 439
 414
 419
 446
 397
 455
 408
 480
 431
 496
 480
 475
 519
 475
 543
 504
 575
 532
 575
 572
 537
 581
 514
 558
 481
 522
 452
 462
 441
 384
 421
 354
 407
 347
 407
 368
 380
 399
 348
 403
 347
 412
 357
 420
 387
 391
 420
 363
 417
 361
 426
 372
 422
 399
 384
 423
 364
 421
 368
 435
 389
 423
 425
 409
 462
 409
 471
 411
 469
 414
 423
 414
 362
 412
 356
 422
 368
 423
 372
 368
 444
 517
 768
 826
 843
 713
 606
 441
 398
 432
 376
 426
 371
 444
 397
 449
 444
 425
 475
 423
 488
 439
 516
 476
 524
 527
 505
 563
 520
 588
 539
 601
 557
 571
 573
 508
 539
 460
 499
 421
 459
 411
 408
 417
 358
 408
 348
 414
 362
 415
 389
 380
 415
 360
 417
 362
 427
 375
 415
 412
 379
 425
 369
 427
 373
 440
 388
 431
 429
 388
 442
 376
 439
 397
 459
 421
 421
 427
 405
 499
 460
 521
 462
 503
 436
 407
 423
 384
 426
 345
 415
 376
 432
 388
 349
 412
 457
 633
 748
 843
 796
 655
 511
 385
 412
 348
 421
 365
 408
 353
 407
 434
 397
 435
 387
 472
 399
 439
 429
 469
 488
 448
 497
 423
 536
 511
 584
 549
 555
 568
 491
 531
 473
 504
 423
 439
 399
 399
 444
 395
 396
 323
 377
 354
 410
 409
 348
 359
 346
 416
 385
 428
 392
 395
 375
 349
 390
 384
 477
 448
 420
 366
 376
 411
 403
 416
 358
 407
 385
 428
 436
 473
 497
 481
 508
 448
 453
 384
 400
 367
 351
 401
 409
 428
 394
 438
 429
 512
 647
 818
 843
 768
 629
 455
 369
 369
 403
 399
 359
 412
 411
 448
 448
 500
 428
 445
 484
 463
 496
 480
 513
 487
 513
 480
 462
 480
 502
 567
 519
 528
 488
 558
 553
 492
 435
 392
 392
 371
 384
 354
 423
 433
 448
 476
 408
 384
 322
 375
 325
 369
 435
 446
 464
 412
 384
 339
 396
 435
 423
 373
 368
 452
 429
 396
 341
 431
 476
 472
 513
 459
 472
 425
 462
 412
 433
 384
 411
 474
 428
 384
 344
 395
 346
 361
 454
 606
 737
 693
 624
 487
 440
 332
 369
 400
 405
 430
 385
 414
 415
 481
 459
 438
 448
 435
 475
 480
 511
 472
 463
 480
 521
 571
 559
 591
 550
 583
 581
 620
 524
 455
 497
 483
 498
 428
 439
 387
 404
 385
 351
 352
 310
 355
 360
 432
 399
 431
 428
 399
 422
 369
 404
 380
 465
 432
 375
 343
 338
 384
 365
 419
 373
 443
 424
 427
 443
 410
 409
 398
 427
 405
 449
 403
 376
 414
 409
 439
 401
 420
 387
 487
 600
 693
 736
 615
 513
 372
 352
 347
 399
 433
 423
 448
 408
 488
 459
 499
 463
 493
 532
 531
 554
 527
 540
 501
 563
 548
 589
 604
 591
 595
 592
 655
 593
 584
 549
 560
 534
 481
 477
 421
 426
 415
 462
 451
 420
 399
 374
 384
 339
 398
 384
 417
 423
 411
 412
 413
 444
 395
 425
 427
 412
 415
 416
 409
 412
 459
 437
 461
 469
 487
 486
 472
 496
 490
 564
 518
 521
 448
 380
 342
 343
 423
 444
 496
 480
 547
 685
 841
 843
 678
 537
 415
 401
 351
 368
 409
 425
 496
 452
 475
 460
 533
 552
 542
 529
 531
 594
 574
 565
 522
 614
 611
 639
 655
 591
 565
 555
 570
 540
 558
 572
 613
 624
 559
 510
 448
 456
 428
 458
 499
 441
 406
 369
 408
 384
 444
 451
 433
 402
 347
 368
 335
 406
 423
 408
 375
 431
 444
 509
 507
 440
 469
 440
 433
 443
 466
 481
 480
 487
 390
 415
 466
 533
 473
 395
 361
 384
 441
 448
 543
 555
 711
 700
 623
 455
 261
 266
 321
 480
 453
 415
 395
 568
 630
 515
 494
 507
 572
 589
 590
 593
 587
 615
 584
 624
 575
 572
 583
 630
 632
 604
 647
 624
 639
 593
 583
 550
 485
 472
 439
 480
 492
 487
 448
 373
 403
 417
 460
 412
 432
 378
 385
 354
 408
 431
 385
 391
 367
 387
 289
 343
 377
 390
 395
 396
 448
 433
 452
 412
 457
 476
 483
 486
 462
 460
 435
 464
 444
 431
 394
 384
 414
 483
 615
 749
 775
 652
 481
 334
 330
 450
 468
 384
 304
 319
 351
 455
 530
 514
 516
 447
 494
 488
 515
 459
 439
 463
 471
 597
 671
 671
 556
 543
 531
 532
 575
 573
 575
 519
 526
 509
 477
 443
 412
 428
 359
 384
 353
 392
 374
 362
 345
 307
 306
 275
 318
 281
 367
 423
 448
 361
 307
 361
 374
 353
 340
 399
 407
 467
 487
 425
 422
 460
 433
 283
 291
 352
 287
 321
 371
 456
 368
 446
 454
 566
 663
 689
 614
 423
 317
 267
 337
 340
 367
 384
 387
 380
 392
 404
 415
 500
 480
 425
 479
 505
 513
 487
 548
 540
 553
 559
 579
 564
 505
 521
 539
 527
 487
 524
 504
 437
 520
 480
 440
 415
 392
 304
 212
 236
 239
 329
 359
 387
 287
 332
 319
 326
 317
 272
 328
 348
 444
 427
 391
 300
 303
 340
 295
 281
 263
 375
 408
 441
 405
 318
 298
 278
 308
 287
 335
 304
 339
 412
 525
 704
 647
 511
 300
 279
 255
 280
 333
 420
 468
 422
 459
 472
 430
 371
 386
 474
 461
 530
 528
 549
 510
 639
 716
 679
 671
 621
 564
 551
 508
 411
 432
 475
 551
 575
 555
 524
 481
 481
 421
 384
 378
 398
 432
 472
 519
 509
 509
 476
 488
 442
 414
 413
 354
 384
 435
 452
 483
 572
 548
 424
 515
 528
 517
 466
 488
 478
 491
 521
 504
 508
 483
 497
 496
 553
 604
 728
 839
 846
 768
 551
 492
 441
 483
 497
 461
 477
 431
 430
 460
 575
 559
 697
 768
 700
 585
 590
 688
 661
 591
 563
 584
 608
 605
 639
 583
 586
 596
 633
 608
 632
 624
 575
 575
 519
 500
 454
 505
 535
 476
 500
 417
 433
 352
 434
 444
 440
 560
 543
 451
 399
 467
 497
 610
 566
 519
 532
 525
 517
 476
 517
 499
 511
 439
 410
 448
 435
 437
 409
 441
 463
 596
 768
 799
 753
 598
 518
 435
 445
 385
 355
 487
 605
 603
 480
 489
 448
 509
 484
 494
 494
 453
 480
 491
 540
 505
 562
 557
 560
 555
 540
 568
 565
 592
 509
 480
 489
 508
 532
 522
 533
 395
 384
 404
 441
 332
 365
 432
 392
 422
 415
 475
 457
 477
 509
 483
 475
 440
 467
 454
 480
 461
 477
 482
 455
 432
 411
 448
 432
 431
 423
 433
 473
 480
 509
 421
 505
 599
 685
 607
 527
 469
 411
 394
 342
 439
 426
 403
 428
 430
 459
 455
 480
 449
 473
 440
 435
 440
 504
 512
 506
 555
 583
 613
 636
 639
 636
 610
 621
 559
 552
 505
 534
 486
 471
 480
 462
 453
 413
 459
 458
 510
 469
 404
 434
 393
 448
 498
 502
 439
 497
 545
 471
 510
 515
 593
 521
 497
 471
 503
 475
 414
 398
 361
 392
 343
 421
 385
 429
 553
 709
 768
 740
 691
 535
 448
 318
 313
 425
 470
 480
 422
 433
 399
 432
 405
 403
 415
 429
 457
 425
 491
 513
 548
 517
 497
 513
 509
 575
 543
 588
 537
 515
 501
 448
 477
 480
 505
 373
 348
 345
 431
 427
 355
 364
 387
 431
 353
 349
 359
 388
 390
 365
 417
 448
 451
 427
 471
 475
 460
 486
 465
 497
 474
 491
 431
 423
 404
 418
 432
 417
 437
 425
 547
 646
 711
 736
 616
 448
 283
 313
 384
 416
 436
 450
 499
 478
 452
 381
 392
 347
 453
 515
 496
 502
 460
 530
 480
 533
 517
 553
 523
 470
 464
 463
 510
 497
 521
 463
 464
 430
 384
 367
 356
 391
 361
 369
 335
 324
 353
 340
 360
 352
 396
 377
 430
 404
 375
 382
 367
 425
 427
 452
 400
 407
 372
 355
 396
 355
 343
 341
 389
 362
 380
 399
 419
 510
 593
 704
 620
 480
 308
 277
 299
 318
 389
 432
 437
 389
 449
 451
 481
 480
 477
 517
 468
 493
 483
 529
 543
 575
 561
 538
 579
 596
 575
 548
 575
 540
 575
 658
 575
 475
 487
 551
 531
 529
 501
 364
 395
 395
 467
 420
 460
 421
 472
 499
 518
 508
 465
 435
 376
 448
 467
 493
 499
 480
 485
 444
 427
 387
 408
 357
 351
 371
 344
 352
 315
 450
 620
 780
 781
 737
 664
 450
 389
 339
 335
 284
 404
 434
 343
 360
 338
 432
 434
 417
 358
 279
 340
 389
 430
 375
 475
 487
 511
 463
 515
 565
 504
 470
 448
 486
 451
 489
 461
 422
 419
 384
 393
 369
 391
 302
 254
 324
 316
 311
 291
 336
 319
 373
 373
 432
 395
 339
 366
 413
 481
 406
 394
 376
 392
 356
 297
 255
 295
 345
 295
 346
 329
 265
 399
 455
 595
 595
 506
 217
 249
 370
 433
 488
 568
 653
 432
 278
 275
 378
 433
 453
 460
 489
 542
 527
 532
 517
 553
 583
 552
 537
 537
 572
 541
 560
 575
 487
 563
 572
 539
 467
 552
 446
 476
 455
 483
 495
 481
 518
 403
 440
 384
 420
 389
 344
 326
 380
 394
 401
 432
 411
 472
 492
 511
 483
 440
 441
 409
 414
 399
 427
 455
 476
 537
 635
 688
 615
 435
 384
 279
 340
 356
 333
 435
 519
 473
 511
 568
 475
 453
 513
 508
 430
 524
 559
 551
 487
 494
 539
 534
 588
 567
 586
 575
 630
 623
 602
 575
 539
 527
 519
 486
 496
 463
 470
 463
 524
 525
 631
 612
 445
 435
 480
 435
 352
 380
 390
 517
 487
 384
 361
 440
 416
 352
 345
 364
 384
 327
 353
 368
 396
 420
 448
 508
 627
 768
 725
 630
 492
 357
 333
 399
 469
 457
 475
 516
 526
 522
 505
 433
 377
 384
 481
 508
 399
 395
 527
 575
 543
 436
 528
 616
 655
 624
 564
 534
 484
 457
 406
 465
 516
 610
 600
 516
 437
 410
 433
 452
 496
 455
 412
 361
 359
 452
 453
 455
 397
 452
 507
 521
 457
 440
 520
 531
 514
 453
 448
 366
 255
 227
 263
 291
 271
 388
 542
 768
 709
 563
 405
 283
 289
 342
 443
 455
 522
 524
 439
 409
 444
 468
 440
 513
 533
 549
 583
 583
 601
 581
 609
 579
 630
 609
 551
 557
 605
 616
 511
 484
 513
 537
 460
 396
 485
 441
 370
 326
 345
 275
 255
 208
 229
 337
 428
 534
 510
 453
 417
 451
 449
 456
 449
 359
 320
 332
 417
 398
 366
 401
 384
 362
 368
 456
 625
 818
 744
 639
 496
 380
 382
 302
 305
 389
 454
 384
 364
 371
 335
 326
 352
 439
 428
 402
 364
 407
 451
 465
 483
 471
 517
 575
 632
 571
 510
 580
 575
 509
 465
 518
 539
 569
 556
 492
 513
 447
 423
 399
 407
 375
 364
 406
 411
 403
 344
 402
 375
 300
 357
 441
 485
 462
 395
 328
 371
 380
 359
 319
 359
 423
 427
 480
 510
 615
 715
 731
 639
 500
 380
 311
 345
 331
 309
 325
 394
 455
 434
 466
 450
 534
 562
 567
 511
 460
 352
 392
 461
 414
 397
 377
 448
 472
 488
 463
 469
 487
 456
 447
 423
 468
 433
 439
 472
 441
 373
 358
 412
 449
 419
 421
 487
 513
 455
 444
 499
 537
 511
 543
 590
 464
 367
 384
 469
 400
 470
 385
 405
 346
 271
 231
 366
 548
 746
 844
 803
 501
 235
 179
 307
 470
 547
 504
 468
 446
 472
 532
 489
 480
 455
 515
 481
 448
 453
 431
 420
 439
 487
 497
 548
 557
 524
 601
 614
 689
 575
 537
 475
 550
 439
 375
 444
 429
 359
 352
 403
 375
 395
 361
 353
 349
 317
 293
 281
 399
 474
 537
 537
 594
 671
 661
 561
 491
 549
 543
 486
 449
 400
 463
 626
 679
 608
 583
 613
 376
 180
 176
 199
 344
 474
 473
 510
 466
 417
 452
 496
 567
 596
 591
 480
 456
 486
 463
 456
 532
 584
 537
 571
 563
 624
 646
 606
 509
 502
 515
 455
 439
 468
 498
 493
 499
 505
 551
 560
 457
 470
 434
 458
 496
 505
 537
 448
 333
 269
 475
 459
 350
 292
 323
 362
 352
 398
 395
 429
 422
 395
 435
 552
 700
 783
 812
 736
 587
 429
 364
 423
 483
 496
 439
 489
 524
 541
 567
 644
 557
 419
 353
 362
 449
 472
 535
 533
 460
 470
 501
 499
 523
 561
 542
 608
 560
 423
 393
 444
 512
 543
 594
 575
 562
 551
 435
 413
 448
 466
 328
 262
 303
 376
 414
 441
 499
 477
 551
 531
 507
 508
 496
 503
 387
 381
 364
 487
 460
 335
 224
 255
 488
 696
 704
 650
 524
 368
 317
 404
 417
 385
 319
 367
 403
 536
 497
 445
 456
 422
 388
 464
 549
 528
 498
 519
 575
 616
 604
 632
 560
 472
 474
 513
 452
 462
 555
 497
 529
 508
 560
 484
 567
 543
 399
 259
 271
 279
 339
 414
 321
 285
 348
 415
 480
 495
 448
 421
 443
 428
 389
 422
 435
 473
 423
 415
 384
 460
 475
 461
 467
 532
 659
 583
 496
 342
 265
 336
 423
 476
 480
 519
 513
 512
 494
 468
 459
 443
 499
 471
 496
 463
 511
 496
 499
 513
 501
 524
 507
 569
 536
 555
 515
 508
 524
 472
 529
 472
 489
 482
 481
 527
 477
 432
 369
 399
 305
 391
 480
 493
 496
 433
 436
 397
 481
 486
 521
 498
 537
 504
 436
 412
 364
 417
 348
 410
 384
 384
 405
 423
 565
 639
 694
 651
 647
 496
 321
 268
 299
 369
 335
 385
 384
 412
 428
 410
 388
 316
 347
 375
 480
 437
 407
 484
 555
 569
 466
 564
 597
 694
 700
 685
 543
 485
 555
 518
 483
 353
 410
 434
 496
 473
 425
 411
 432
 481
 420
 366
 319
 308
 356
 359
 359
 308
 357
 387
 331
 300
 300
 356
 336
 304
 185
 180
 181
 250
 295
 332
 376
 404
 500
 595
 598
 427
 215
 188
 175
 190
 238
 303
 292
 290
 231
 230
 356
 305
 281
 240
 304
 284
 397
 455
 467
 448
 385
 448
 448
 476
 440
 472
 443
 347
 375
 419
 419
 368
 459
 472
 407
 401
 406
 411
 353
 313
 311
 432
 419
 323
 344
 367
 363
 382
 449
 417
 331
 248
 326
 324
 294
 359
 413
 348
 191
 281
 324
 324
 255
 259
 319
 388
 547
 708
 691
 473
 229
 177
 175
 245
 364
 420
 345
 360
 502
 519
 429
 363
 337
 303
 353
 371
 440
 509
 529
 468
 349
 457
 483
 511
 460
 453
 504
 510
 541
 543
 604
 518
 423
 415
 455
 455
 431
 415
 375
 391
 357
 397
 432
 356
 302
 341
 444
 395
 319
 304
 364
 401
 415
 472
 399
 408
 305
 328
 393
 361
 303
 306
 423
 340
 349
 427
 677
 772
 643
 560
 354
 275
 189
 291
 339
 431
 457
 396
 417
 401
 484
 418
 436
 417
 465
 486
 480
 431
 391
 457
 417
 414
 423
 472
 505
 464
 467
 444
 542
 549
 575
 519
 592
 620
 476
 476
 529
 581
 459
 405
 367
 384
 346
 319
 358
 357
 411
 344
 339
 340
 365
 375
 399
 480
 401
 379
 440
 451
 497
 455
 396
 372
 454
 359
 321
 467
 737
 844
 843
 707
 444
 328
 177
 176
 174
 176
 206
 340
 436
 543
 524
 428
 489
 517
 337
 304
 453
 508
 484
 452
 452
 503
 504
 426
 437
 486
 547
 508
 452
 415
 448
 473
 449
 467
 436
 434
 391
 418
 391
 358
 361
 379
 429
 387
 400
 299
 339
 340
 264
 233
 229
 415
 376
 556
 535
 517
 278
 295
 339
 320
 243
 177
 328
 407
 509
 476
 594
 708
 691
 691
 469
 378
 265
 244
 348
 371
 371
 352
 462
 462
 437
 468
 481
 433
 412
 448
 375
 387
 372
 465
 496
 460
 500
 561
 575
 510
 511
 476
 497
 480
 471
 468
 400
 427
 362
 412
 568
 592
 559
 397
 321
 321
 393
 314
 289
 347
 537
 493
 391
 360
 408
 396
 354
 419
 454
 547
 519
 467
 411
 374
 423
 399
 406
 346
 340
 368
 420
 540
 659
 750
 665
 520
 364
 294
 255
 283
 315
 406
 494
 439
 384
 425
 496
 434
 371
 393
 510
 595
 580
 633
 556
 424
 406
 496
 575
 527
 486
 501
 585
 654
 527
 572
 516
 448
 401
 575
 604
 500
 497
 482
 438
 375
 419
 387
 395
 379
 372
 407
 403
 397
 361
 380
 361
 420
 519
 519
 535
 472
 511
 448
 479
 523
 524
 488
 419
 503
 538
 519
 537
 795
 843
 846
 843
 827
 690
 340
 319
 269
 470
 481
 502
 534
 620
 543
 458
 505
 501
 536
 536
 535
 561
 531
 573
 572
 663
 632
 589
 575
 560
 660
 580
 525
 495
 537
 499
 575
 572
 518
 565
 543
 671
 585
 521
 423
 391
 375
 415
 597
 599
 575
 515
 639
 675
 591
 551
 511
 404
 339
 440
 494
 615
 519
 408
 499
 448
 437
 445
 444
 451
 447
 540
 704
 844
 837
 673
 463
 356
 295
 368
 390
 451
 485
 515
 543
 449
 415
 412
 407
 515
 474
 447
 476
 604
 572
 509
 427
 435
 581
 583
 626
 605
 711
 680
 568
 491
 578
 789
 676
 572
 475
 537
 360
 512
 605
 528
 469
 543
 551
 456
 517
 467
 399
 396
 435
 495
 420
 415
 439
 450
 449
 471
 496
 494
 525
 480
 437
 409
 568
 480
 387
 433
 369
 454
 625
 841
 781
 599
 480
 395
 306
 288
 356
 515
 572
 474
 365
 475
 661
 752
 617
 457
 467
 548
 541
 569
 496
 476
 619
 690
 706
 483
 435
 486
 612
 612
 480
 524
 561
 533
 480
 511
 496
 455
 467
 455
 443
 349
 424
 472
 376
 413
 523
 454
 342
 518
 534
 534
 512
 427
 400
 354
 416
 486
 495
 433
 564
 557
 519
 493
 375
 351
 295
 423
 515
 611
 671
 639
 590
 467
 267
 253
 425
 403
 449
 494
 497
 563
 465
 368
 346
 465
 503
 543
 474
 459
 503
 486
 613
 473
 496
 512
 504
 481
 507
 560
 473
 463
 428
 479
 451
 481
 510
 436
 435
 460
 485
 417
 445
 398
 400
 436
 440
 423
 393
 391
 423
 429
 354
 352
 362
 353
 390
 326
 369
 431
 584
 567
 520
 525
 308
 186
 321
 439
 319
 332
 553
 630
 841
 608
 401
 173
 182
 184
 328
 422
 475
 409
 331
 333
 308
 401
 453
 443
 448
 366
 417
 413
 384
 359
 379
 400
 475
 549
 423
 390
 468
 475
 393
 448
 551
 492
 501
 448
 462
 445
 540
 448
 390
 414
 475
 541
 351
 352
 414
 434
 261
 391
 420
 524
 518
 477
 435
 360
 415
 414
 464
 448
 359
 319
 415
 432
 275
 260
 284
 312
 368
 479
 608
 645
 575
 408
 302
 216
 232
 360
 376
 345
 452
 615
 517
 547
 539
 430
 510
 529
 543
 508
 562
 530
 543
 622
 679
 560
 374
 455
 573
 572
 528
 651
 662
 569
 504
 461
 496
 598
 543
 412
 415
 402
 384
 414
 384
 448
 347
 405
 332
 404
 369
 373
 449
 414
 374
 349
 364
 430
 427
 472
 483
 440
 377
 448
 505
 477
 401
 359
 379
 406
 448
 460
 529
 639
 752
 602
 376
 315
 245
 212
 307
 440
 295
 456
 620
 575
 548
 482
 401
 399
 495
 497
 487
 475
 511
 511
 450
 471
 499
 480
 504
 492
 480
 473
 540
 526
 572
 543
 533
 513
 555
 575
 501
 472
 462
 444
 437
 420
 427
 432
 513
 485
 384
 369
 483
 428
 401
 456
 403
 395
 515
 694
 547
 384
 369
 375
 457
 525
 573
 407
 429
 441
 548
 489
 536
 607
 601
 513
 411
 319
 272
 420
 404
 384
 409
 423
 469
 396
 455
 547
 564
 429
 425
 543
 510
 522
 599
 625
 433
 369
 495
 508
 575
 591
 644
 590
 632
 689
 615
 532
 420
 494
 509
 624
 551
 528
 583
 565
 475
 500
 624
 516
 485
 492
 550
 480
 364
 403
 485
 599
 521
 589
 506
 489
 512
 493
 489
 384
 417
 415
 432
 405
 398
 460
 518
 636
 623
 604
 487
 417
 346
 286
 381
 408
 474
 390
 437
 480
 518
 537
 496
 583
 518
 585
 601
 531
 427
 448
 511
 465
 524
 535
 586
 575
 543
 465
 448
 543
 556
 666
 624
 565
 518
 575
 615
 537
 601
 571
 560
 463
 417
 363
 401
 523
 600
 600
 543
 545
 519
 591
 520
 459
 528
 534
 510
 509
 625
 548
 510
 486
 473
 492
 505
 514
 411
 421
 495
 704
 798
 692
 657
 517
 444
 324
 377
 428
 476
 441
 408
 388
 405
 487
 539
 480
 440
 523
 550
 499
 483
 436
 448
 460
 569
 606
 593
 531
 419
 419
 420
 503
 494
 464
 444
 481
 543
 511
 504
 451
 489
 412
 387
 359
 384
 452
 452
 459
 411
 430
 415
 438
 441
 413
 425
 408
 442
 428
 504
 519
 473
 454
 409
 449
 412
 435
 435
 504
 462
 435
 527
 628
 749
 693
 621
 496
 497
 510
 470
 454
 403
 403
 399
 483
 481
 467
 490
 516
 560
 543
 543
 539
 555
 533
 518
 529
 561
 597
 536
 523
 496
 533
 462
 476
 523
 505
 493
 475
 599
 593
 591
 500
 459
 455
 457
 472
 409
 450
 466
 404
 384
 463
 502
 454
 505
 488
 496
 464
 543
 494
 453
 512
 484
 496
 424
 455
 452
 483
 484
 443
 483
 514
 639
 768
 844
 768
 596
 454
 333
 377
 388
 448
 415
 463
 491
 478
 475
 475
 551
 528
 513
 470
 500
 527
 524
 559
 537
 553
 527
 589
 543
 557
 584
 552
 551
 525
 583
 547
 574
 553
 551
 529
 473
 516
 475
 507
 460
 478
 460
 427
 454
 459
 458
 403
 450
 453
 485
 459
 448
 489
 480
 500
 495
 529
 470
 493
 476
 459
 451
 452
 488
 437
 468
 532
 716
 793
 697
 543
 417
 395
 373
 463
 502
 519
 497
 483
 510
 506
 480
 431
 514
 537
 503
 482
 472
 505
 508
 523
 500
 532
 513
 501
 515
 494
 483
 469
 524
 480
 497
 499
 497
 495
 451
 449
 397
 422
 408
 400
 372
 367
 397
 358
 354
 344
 373
 355
 371
 362
 355
 395
 382
 393
 359
 404
 384
 364
 338
 324
 366
 345
 342
 308
 359
 341
 389
 543
 711
 659
 480
 305
 179
 179
 249
 308
 357
 387
 433
 384
 399
 365
 365
 379
 376
 407
 399
 456
 448
 464
 448
 453
 491
 455
 477
 463
 483
 481
 523
 479
 448
 475
 484
 510
 499
 494
 431
 432
 446
 414
 385
 351
 399
 389
 425
 349
 327
 333
 319
 384
 406
 423
 419
 470
 403
 347
 401
 424
 434
 358
 376
 384
 399
 340
 292
 369
 388
 469
 553
 688
 580
 395
 253
 207
 281
 283
 353
 399
 480
 393
 409
 440
 421
 420
 401
 484
 455
 487
 488
 491
 480
 428
 483
 473
 543
 463
 491
 518
 513
 469
 440
 516
 487
 539
 449
 492
 485
 462
 435
 399
 415
 340
 384
 348
 388
 409
 388
 388
 347
 406
 371
 436
 404
 415
 480
 419
 400
 354
 444
 362
 412
 390
 407
 433
 417
 413
 402
 531
 543
 613
 470
 287
 235
 205
 297
 343
 454
 408
 453
 448
 432
 432
 419
 480
 448
 511
 481
 519
 497
 472
 512
 486
 518
 473
 567
 547
 558
 575
 522
 549
 465
 538
 521
 583
 498
 485
 497
 454
 456
 411
 459
 361
 384
 363
 403
 414
 346
 370
 341
 401
 372
 456
 450
 423
 475
 438
 448
 437
 543
 415
 391
 436
 438
 449
 472
 433
 433
 584
 575
 560
 495
 408
 363
 320
 398
 443
 519
 460
 481
 532
 506
 523
 483
 515
 525
 579
 516
 537
 569
 564
 591
 564
 581
 563
 636
 589
 542
 592
 615
 621
 560
 566
 536
 519
 495
 508
 511
 482
 536
 509
 539
 469
 467
 467
 450
 496
 482
 455
 443
 531
 487
 459
 496
 496
 492
 459
 497
 448
 475
 442
 469
 465
 415
 461
 429
 453
 475
 559
 480
 359
 336
 309
 358
 377
 471
 419
 391
 409
 424
 451
 433
 511
 432
 448
 448
 476
 466
 419
 472
 428
 480
 501
 534
 508
 505
 459
 420
 489
 460
 511
 451
 441
 452
 520
 497
 427
 427
 359
 363
 387
 475
 434
 400
 469
 503
 491
 492
 513
 308
 339
 477
 431
 405
 403
 483
 421
 486
 462
 423
 318
 318
 428
 422
 443
 414
 532
 544
 491
 389
 270
 294
 311
 337
 305
 430
 455
 483
 521
 575
 661
 616
 493
 369
 488
 513
 461
 541
 608
 693
 688
 693
 655
 597
 486
 455
 662
 598
 525
 513
 620
 543
 472
 504
 527
 519
 488
 550
 503
 450
 389
 376
 445
 454
 448
 331
 409
 438
 526
 445
 371
 399
 417
 421
 358
 415
 467
 462
 442
 433
 421
 332
 376
 352
 450
 468
 455
 459
 448
 480
 418
 384
 279
 292
 272
 319
 385
 377
 436
 428
 448
 417
 437
 449
 415
 448
 421
 484
 415
 459
 423
 461
 457
 452
 488
 462
 513
 448
 480
 449
 451
 448
 446
 490
 421
 372
 300
 388
 389
 323
 327
 311
 345
 282
 322
 324
 363
 287
 280
 314
 302
 370
 364
 400
 329
 365
 384
 359
 340
 300
 372
 373
 384
 318
 343
 358
 310
 438
 486
 556
 455
 377
 251
 237
 358
 350
 263
 259
 400
 377
 440
 352
 332
 415
 523
 487
 304
 334
 347
 429
 335
 327
 455
 493
 516
 422
 466
 444
 499
 453
 435
 451
 388
 423
 380
 451
 391
 432
 430
 348
 423
 348
 344
 273
 299
 320
 384
 360
 332
 371
 355
 364
 359
 361
 407
 526
 459
 344
 353
 329
 363
 319
 343
 308
 287
 319
 266
 279
 334
 474
 521
 621
 603
 425
 300
 179
 242
 309
 411
 396
 448
 477
 426
 434
 435
 572
 570
 546
 392
 420
 460
 435
 471
 473
 539
 483
 539
 593
 590
 511
 428
 480
 424
 505
 519
 561
 540
 523
 581
 638
 599
 384
 329
 413
 524
 491
 492
 547
 463
 456
 411
 411
 353
 454
 560
 489
 425
 524
 565
 463
 441
 448
 467
 441
 396
 431
 418
 397
 397
 451
 365
 340
 441
 669
 820
 711
 517
 400
 333
 303
 291
 330
 368
 441
 499
 513
 496
 510
 479
 461
 485
 476
 536
 504
 592
 600
 531
 525
 558
 596
 539
 564
 542
 583
 543
 559
 563
 499
 503
 467
 540
 498
 499
 455
 453
 492
 472
 425
 362
 491
 508
 439
 417
 464
 465
 464
 449
 344
 442
 448
 463
 496
 504
 519
 497
 526
 511
 521
 464
 425
 407
 380
 454
 472
 541
 527
 604
 696
 768
 624
 443
 391
 356
 405
 460
 518
 463
 509
 601
 607
 647
 586
 602
 588
 622
 597
 662
 693
 637
 663
 719
 802
 747
 743
 671
 704
 773
 688
 575
 508
 575
 625
 659
 683
 569
 567
 538
 526
 430
 480
 473
 414
 404
 428
 499
 432
 472
 427
 397
 424
 487
 469
 397
 428
 438
 488
 455
 471
 487
 455
 461
 423
 396
 356
 433
 390
 399
 380
 398
 508
 518
 646
 636
 522
 291
 196
 224
 248
 337
 368
 435
 435
 481
 423
 451
 498
 467
 486
 444
 499
 473
 519
 469
 483
 519
 553
 541
 508
 575
 529
 561
 583
 574
 575
 543
 523
 515
 531
 432
 409
 334
 309
 369
 372
 327
 236
 268
 281
 324
 301
 305
 372
 371
 376
 339
 360
 332
 345
 348
 355
 412
 384
 407
 396
 433
 411
 435
 430
 349
 311
 319
 380
 359
 372
 372
 384
 456
 549
 717
 649
 417
 219
 190
 237
 296
 368
 360
 393
 384
 438
 415
 527
 539
 419
 359
 390
 464
 463
 513
 493
 526
 536
 527
 550
 563
 551
 504
 503
 499
 537
 559
 558
 603
 543
 524
 513
 575
 496
 451
 496
 506
 521
 504
 522
 513
 533
 514
 504
 539
 541
 551
 483
 491
 487
 543
 551
 521
 508
 500
 514
 515
 523
 499
 476
 472
 485
 504
 477
 508
 476
 475
 543
 646
 788
 752
 691
 560
 483
 373
 376
 416
 432
 423
 412
 523
 484
 450
 399
 435
 489
 465
 527
 527
 567
 504
 605
 575
 523
 476
 422
 460
 443
 495
 464
 488
 451
 449
 441
 391
 417
 347
 375
 345
 374
 344
 408
 414
 384
 384
 368
 426
 365
 353
 358
 332
 342
 363
 428
 376
 359
 312
 350
 414
 445
 439
 334
 327
 296
 315
 308
 345
 415
 429
 405
 310
 391
 480
 615
 660
 621
 477
 264
 245
 235
 340
 362
 422
 410
 433
 509
 452
 505
 469
 505
 440
 486
 465
 454
 527
 515
 514
 459
 512
 569
 775
 840
 742
 684
 575
 585
 534
 557
 468
 412
 392
 388
 453
 407
 376
 364
 421
 401
 384
 399
 319
 368
 347
 399
 387
 415
 378
 388
 420
 369
 391
 385
 396
 386
 465
 433
 401
 412
 380
 437
 347
 390
 351
 376
 389
 367
 365
 374
 516
 608
 615
 487
 355
 228
 182
 341
 361
 374
 403
 415
 369
 367
 453
 432
 431
 440
 487
 415
 448
 423
 475
 498
 463
 476
 491
 530
 527
 520
 520
 497
 477
 439
 500
 439
 462
 449
 480
 443
 417
 444
 420
 408
 357
 408
 392
 399
 400
 407
 431
 433
 453
 456
 457
 371
 404
 440
 391
 422
 420
 461
 435
 496
 496
 432
 439
 399
 437
 467
 537
 536
 519
 490
 533
 677
 712
 752
 692
 595
 455
 469
 485
 413
 448
 423
 448
 351
 395
 301
 384
 463
 499
 500
 487
 518
 511
 524
 563
 600
 605
 550
 597
 580
 589
 557
 563
 524
 466
 508
 560
 546
 487
 489
 420
 405
 379
 405
 469
 469
 480
 466
 477
 473
 472
 451
 418
 415
 363
 359
 384
 463
 416
 393
 399
 385
 415
 432
 436
 376
 379
 344
 331
 321
 336
 397
 389
 420
 425
 520
 619
 693
 608
 350
 207
 182
 283
 408
 461
 469
 459
 448
 428
 465
 417
 431
 408
 509
 530
 490
 509
 519
 583
 564
 517
 472
 542
 620
 568
 562
 575
 496
 325
 386
 451
 462
 447
 404
 460
 411
 404
 340
 385
 379
 396
 412
 404
 441
 433
 480
 408
 413
 424
 411
 406
 391
 423
 408
 448
 413
 421
 428
 423
 421
 432
 440
 385
 405
 378
 399
 371
 327
 355
 423
 575
 671
 664
 520
 370
 281
 209
 295
 355
 456
 472
 440
 343
 403
 492
 497
 480
 438
 491
 496
 542
 531
 503
 499
 481
 511
 511
 543
 535
 541
 519
 497
 516
 496
 505
 411
 405
 371
 331
 281
 216
 372
 480
 659
 519
 463
 384
 417
 415
 395
 431
 420
 456
 432
 456
 433
 456
 477
 444
 451
 424
 464
 462
 493
 496
 462
 422
 380
 399
 352
 340
 395
 548
 607
 655
 769
 677
 543
 313
 331
 300
 396
 457
 448
 480
 504
 561
 508
 502
 505
 545
 563
 470
 496
 521
 605
 582
 636
 597
 574
 609
 572
 608
 557
 571
 538
 564
 555
 514
 515
 474
 501
 461
 480
 419
 402
 406
 407
 448
 397
 448
 459
 463
 453
 444
 463
 403
 419
 376
 473
 489
 515
 480
 464
 497
 455
 485
 425
 465
 403
 448
 448
 417
 451
 396
 503
 559
 768
 744
 647
 454
 280
 287
 279
 409
 403
 491
 473
 503
 539
 490
 524
 476
 548
 501
 563
 541
 561
 595
 541
 599
 561
 639
 587
 639
 600
 584
 624
 550
 593
 534
 598
 531
 567
 540
 488
 524
 467
 525
 470
 531
 489
 527
 499
 440
 487
 441
 498
 448
 533
 496
 513
 540
 487
 540
 487
 540
 454
 515
 471
 466
 470
 413
 483
 449
 496
 423
 521
 575
 665
 723
 594
 505
 321
 339
 317
 396
 432
 424
 481
 453
 535
 469
 521
 475
 515
 524
 513
 551
 484
 556
 511
 601
 551
 556
 579
 535
 575
 501
 543
 487
 556
 525
 516
 516
 432
 475
 413
 466
 385
 440
 412
 393
 448
 400
 460
 387
 448
 384
 422
 412
 392
 448
 380
 432
 380
 456
 407
 441
 455
 392
 429
 369
 425
 377
 427
 364
 368
 391
 348
 467
 527
 698
 625
 537
 334
 227
 248
 254
 366
 352
 429
 380
 448
 436
 419
 463
 411
 472
 429
 513
 470
 532
 524
 473
 524
 480
 550
 496
 563
 508
 536
 548
 497
 524
 453
 492
 431
 484
 434
 455
 449
 372
 417
 363
 420
 353
 415
 386
 384
 422
 371
 420
 364
 433
 387
 428
 394
 385
 435
 376
 440
 400
 471
 410
 448
 423
 366
 415
 380
 428
 364
 439
 391
 455
 590
 671
 718
 540
 419
 252
 301
 323
 385
 422
 377
 440
 408
 484
 436
 504
 486
 481
 527
 475
 534
 492
 565
 496
 566
 561
 540
 573
 511
 561
 496
 561
 504
 527
 533
 475
 498
 435
 489
 422
 476
 419
 436
 439
 387
 432
 384
 451
 398
 458
 415
 412
 437
 385
 440
 390
 455
 408
 479
 456
 432
 477
 423
 473
 414
 473
 411
 454
 435
 408
 448
 388
 448
 405
 528
 575
 716
 698
 527
 410
 251
 304
 300
 432
 429
 459
 479
 431
 492
 449
 515
 466
 527
 505
 519
 563
 513
 566
 523
 595
 533
 583
 563
 540
 577
 529
 574
 508
 568
 496
 528
 511
 453
 479
 415
 475
 415
 485
 423
 440
 442
 392
 448
 384
 448
 388
 459
 411
 423
 446
 393
 453
 401
 464
 412
 487
 459
 460
 490
 424
 462
 400
 454
 377
 440
 428
 403
 435
 385
 485
 529
 711
 662
 568
 393
 250
 270
 279
 413
 384
 465
 436
 469
 485
 443
 501
 451
 519
 463
 535
 499
 517
 553
 499
 557
 507
 583
 524
 589
 547
 511
 543
 486
 526
 451
 519
 440
 484
 454
 417
 456
 388
 440
 377
 455
 392
 432
 424
 373
 419
 364
 427
 374
 448
 395
 428
 435
 387
 438
 398
 467
 392
 471
 441
 448
 471
 405
 447
 376
 439
 384
 441
 408
 398
 435
 423
 585
 659
 752
 579
 451
 312
 247
 339
 343
 448
 406
 496
 440
 472
 480
 437
 497
 439
 514
 452
 548
 503
 534
 551
 519
 559
 511
 588
 525
 575
 533
 519
 549
 487
 539
 475
 527
 439
 497
 445
 415
 448
 387
 448
 387
 448
 389
 448
 435
 394
 435
 377
 449
 387
 460
 408
 438
 433
 397
 451
 397
 463
 415
 503
 454
 455
 481
 423
 461
 387
 451
 390
 459
 424
 412
 448
 414
 547
 583
 736
 648
 554
 359
 255
 305
 319
 441
 412
 503
 448
 489
 486
 455
 504
 457
 536
 478
 565
 520
 551
 556
 521
 579
 534
 602
 531
 598
 548
 543
 556
 500
 550
 480
 527
 455
 510
 462
 448
 454
 392
 435
 387
 464
 399
 451
 424
 403
 448
 391
 449
 376
 453
 397
 431
 439
 400
 448
 391
 460
 407
 485
 433
 468
 472
 407
 445
 388
 435
 365
 440
 399
 412
 439
 399
 527
 595
 721
 585
 488
 305
 235
 302
 319
 431
 391
 480
 416
 476
 472
 448
 491
 439
 508
 456
 543
 499
 543
 535
 499
 565
 519
 575
 505
 574
 511
 529
 537
 476
 512
 452
 505
 423
 472
 428
 409
 426
 363
 418
 363
 433
 369
 428
 397
 395
 429
 359
 415
 361
 437
 370
 422
 408
 372
 415
 369
 439
 367
 441
 392
 442
 441
 399
 455
 405
 460
 369
 427
 385
 401
 414
 359
 411
 351
 455
 500
 677
 705
 639
 485
 271
 271
 252
 393
 369
 450
 433
 415
 467
 412
 482
 423
 508
 453
 507
 513
 477
 542
 487
 556
 499
 575
 522
 551
 553
 496
 537
 480
 533
 463
 521
 463
 462
 468
 396
 431
 366
 423
 356
 431
 389
 387
 416
 355
 410
 353
 432
 368
 423
 403
 378
 419
 366
 423
 367
 438
 380
 429
 415
 380
 435
 387
 453
 403
 487
 425
 440
 431
 377
 415
 364
 431
 369
 432
 384
 398
 504
 575
 743
 668
 573
 341
 321
 274
 335
 423
 382
 444
 400
 483
 428
 487
 475
 451
 504
 452
 523
 473
 561
 507
 560
 564
 527
 579
 524
 575
 505
 564
 504
 524
 534
 469
 508
 440
 493
 412
 469
 403
 413
 431
 375
 424
 364
 433
 374
 439
 415
 403
 448
 384
 429
 376
 449
 387
 438
 428
 385
 448
 385
 448
 389
 465
 412
 456
 462
 425
 480
 415
 473
 398
 464
 404
 415
 440
 384
 448
 387
 455
 443
 614
 678
 665
 566
 332
 279
 223
 364
 373
 467
 452
 437
 488
 438
 501
 448
 529
 476
 532
 526
 503
 561
 511
 572
 511
 602
 551
 581
 583
 529
 569
 507
 563
 491
 543
 481
 471
 481
 417
 457
 392
 451
 379
 451
 409
 403
 439
 384
 442
 384
 459
 384
 439
 420
 396
 439
 380
 436
 375
 453
 398
 444
 431
 387
 440
 384
 460
 405
 481
 425
 460
 475
 411
 451
 375
 433
 371
 448
 398
 408
 431
 369
 459
 521
 711
 671
 639
 434
 283
 283
 275
 404
 376
 460
 411
 473
 471
 448
 500
 432
 502
 460
 547
 485
 515
 521
 500
 569
 519
 592
 527
 607
 534
 537
 553
 477
 513
 431
 512
 427
 450
 385
 406
 439
 371
 400
 334
 436
 351
 372
 327
 371
 404
 368
 449
 389
 432
 369
 421
 364
 386
 393
 332
 372
 384
 464
 391
 376
 377
 340
 368
 381
 439
 388
 411
 407
 448
 454
 423
 483
 448
 444
 346
 377
 398
 372
 380
 319
 377
 401
 499
 587
 768
 736
 569
 432
 286
 300
 305
 403
 371
 421
 448
 417
 459
 416
 450
 368
 443
 435
 468
 472
 439
 513
 492
 525
 502
 573
 539
 543
 549
 493
 537
 490
 519
 465
 492
 455
 415
 460
 416
 429
 367
 419
 360
 379
 398
 368
 384
 334
 384
 363
 411
 366
 392
 398
 373
 404
 355
 391
 359
 429
 408
 417
 417
 362
 407
 389
 411
 302
 351
 315
 401
 418
 384
 422
 427
 448
 421
 448
 384
 320
 369
 349
 394
 357
 399
 374
 423
 475
 569
 711
 686
 587
 384
 348
 304
 344
 391
 402
 420
 408
 492
 475
 519
 491
 415
 413
 421
 493
 415
 464
 480
 549
 505
 499
 574
 490
 527
 483
 565
 490
 517
 478
 461
 480
 377
 414
 340
 406
 309
 365
 395
 389
 419
 343
 384
 347
 430
 355
 404
 433
 363
 419
 375
 443
 364
 428
 369
 368
 386
 332
 396
 348
 444
 352
 405
 380
 361
 412
 347
 419
 342
 448
 384
 440
 415
 391
 443
 351
 407
 333
 419
 347
 391
 384
 344
 401
 345
 492
 553
 725
 632
 510
 367
 232
 291
 269
 397
 333
 428
 380
 401
 453
 373
 443
 380
 476
 399
 480
 435
 430
 502
 449
 519
 455
 541
 455
 535
 521
 463
 498
 423
 484
 378
 435
 353
 386
 384
 318
 360
 263
 348
 284
 375
 308
 333
 356
 283
 341
 275
 366
 278
 370
 319
 321
 359
 292
 345
 270
 354
 265
 343
 319
 287
 339
 268
 340
 265
 360
 279
 334
 325
 291
 363
 291
 368
 289
 377
 285
 308
 304
 235
 291
 224
 317
 249
 339
 267
 339
 479
 566
 645
 474
 370
 182
 222
 204
 247
 320
 253
 325
 260
 359
 291
 365
 351
 325
 393
 331
 403
 340
 436
 373
 439
 429
 396
 453
 379
 452
 384
 477
 397
 403
 391
 310
 350
 268
 329
 231
 319
 255
 265
 288
 214
 287
 213
 305
 227
 318
 286
 261
 287
 227
 299
 240
 331
 248
 319
 295
 267
 312
 240
 315
 227
 331
 259
 305
 311
 251
 306
 244
 326
 243
 337
 285
 308
 341
 271
 334
 276
 369
 301
 391
 321
 328
 361
 271
 311
 243
 343
 277
 371
 327
 286
 344
 335
 536
 600
 690
 496
 385
 253
 184
 289
 273
 359
 281
 389
 334
 393
 403
 343
 411
 348
 447
 377
 475
 432
 460
 480
 434
 513
 448
 537
 451
 533
 477
 467
 499
 403
 457
 384
 453
 353
 420
 380
 317
 372
 303
 376
 300
 378
 303
 380
 374
 321
 371
 292
 388
 319
 414
 344
 386
 396
 313
 386
 327
 410
 329
 416
 360
 374
 396
 317
 377
 315
 400
 319
 401
 379
 384
 431
 352
 420
 350
 454
 384
 448
 412
 384
 423
 339
 412
 334
 415
 333
 391
 396
 340
 417
 444
 661
 661
 665
 464
 336
 287
 251
 368
 341
 435
 358
 467
 420
 444
 497
 436
 502
 431
 530
 448
 527
 495
 489
 548
 482
 565
 497
 585
 503
 580
 545
 492
 532
 448
 513
 412
 485
 393
 409
 403
 344
 399
 327
 421
 344
 431
 364
 391
 411
 351
 407
 325
 428
 357
 451
 393
 376
 408
 337
 405
 341
 432
 352
 441
 407
 363
 426
 353
 415
 343
 439
 358
 429
 424
 388
 455
 393
 466
 391
 476
 387
 406
 408
 343
 403
 335
 420
 354
 448
 419
 547
 704
 665
 646
 412
 374
 251
 373
 372
 395
 435
 369
 452
 390
 492
 413
 505
 489
 487
 534
 463
 548
 475
 575
 517
 587
 568
 525
 600
 525
 598
 509
 585
 499
 505
 525
 448
 463
 385
 455
 366
 443
 384
 384
 422
 362
 428
 342
 433
 368
 448
 403
 388
 434
 357
 419
 339
 448
 373
 449
 427
 399
 443
 358
 433
 368
 463
 371
 427
 437
 386
 448
 372
 459
 373
 477
 421
 443
 451
 415
 488
 419
 473
 381
 477
 432
 403
 442
 349
 432
 372
 465
 422
 581
 684
 721
 719
 494
 414
 265
 393
 361
 455
 451
 415
 470
 417
 501
 423
 519
 460
 495
 519
 463
 551
 497
 583
 521
 623
 568
 588
 617
 543
 597
 517
 592
 492
 566
 506
 472
 489
 409
 463
 369
 453
 374
 446
 400
 371
 428
 358
 436
 359
 457
 375
 455
 449
 388
 427
 359
 452
 377
 455
 384
 411
 436
 393
 452
 375
 449
 377
 473
 413
 426
 448
 369
 440
 368
 480
 410
 496
 449
 438
 500
 408
 453
 367
 465
 374
 452
 421
 389
 436
 367
 500
 533
 788
 752
 689
 479
 296
 325
 305
 443
 390
 487
 421
 478
 505
 430
 510
 451
 531
 452
 560
 515
 522
 559
 500
 608
 559
 639
 563
 620
 571
 545
 588
 501
 573
 484
 537
 428
 487
 455
 403
 450
 380
 440
 364
 459
 381
 423
 444
 374
 443
 371
 445
 363
 467
 415
 426
 448
 384
 448
 376
 445
 389
 480
 425
 399
 452
 388
 460
 377
 476
 399
 483
 435
 423
 486
 416
 499
 431
 508
 432
 483
 458
 385
 435
 372
 459
 384
 486
 415
 458
 561
 660
 768
 615
 525
 312
 361
 332
 391
 465
 406
 477
 420
 523
 457
 549
 500
 471
 537
 485
 582
 501
 608
 531
 617
 593
 561
 619
 554
 625
 524
 623
 568
 601
 575
 480
 515
 435
 499
 395
 491
 419
 452
 460
 389
 441
 369
 467
 392
 480
 412
 422
 453
 369
 438
 384
 485
 399
 460
 428
 396
 461
 391
 455
 384
 469
 391
 463
 459
 424
 487
 419
 486
 420
 515
 451
 471
 461
 384
 435
 357
 451
 371
 470
 412
 470
 567
 632
 752
 612
 529
 304
 332
 324
 385
 445
 369
 471
 433
 532
 451
 533
 499
 487
 540
 463
 548
 481
 593
 515
 583
 601
 580
 625
 539
 620
 546
 636
 541
 559
 575
 476
 504
 411
 480
 386
 471
 397
 402
 444
 385
 454
 385
 479
 392
 480
 430
 408
 459
 382
 455
 370
 481
 420
 495
 448
 413
 473
 396
 476
 386
 476
 397
 455
 449
 393
 459
 405
 513
 424
 525
 468
 507
 505
 420
 464
 391
 463
 384
 480
 443
 444
 463
 379
 492
 539
 782
 736
 719
 515
 343
 343
 305
 424
 406
 537
 451
 508
 492
 448
 510
 439
 533
 461
 564
 511
 573
 575
 531
 606
 544
 630
 556
 639
 587
 615
 601
 516
 568
 493
 564
 455
 519
 448
 427
 467
 382
 442
 360
 455
 384
 459
 413
 408
 468
 391
 460
 392
 481
 399
 465
 454
 412
 455
 385
 476
 403
 505
 432
 467
 471
 408
 455
 384
 475
 398
 492
 443
 461
 487
 428
 503
 435
 519
 423
 490
 422
 405
 451
 369
 469
 412
 487
 427
 598
 721
 785
 768
 507
 413
 269
 375
 372
 485
 491
 435
 510
 451
 526
 448
 557
 481
 520
 527
 482
 566
 543
 639
 568
 661
 600
 619
 639
 569
 636
 537
 616
 519
 596
 531
 485
 517
 427
 483
 399
 488
 393
 463
 435
 417
 466
 384
 455
 390
 487
 403
 462
 448
 376
 465
 419
 481
 399
 504
 441
 467
 487
 417
 481
 408
 486
 399
 498
 455
 448
 496
 437
 521
 437
 519
 449
 548
 486
 455
 487
 406
 476
 408
 498
 415
 479
 463
 432
 541
 565
 768
 721
 694
 451
 369
 349
 343
 463
 426
 527
 440
 536
 472
 519
 557
 496
 557
 502
 597
 519
 617
 574
 581
 627
 556
 626
 553
 659
 579
 652
 589
 559
 589
 496
 547
 443
 527
 436
 481
 457
 396
 451
 379
 458
 372
 486
 411
 476
 473
 430
 491
 407
 496
 419
 512
 449
 475
 488
 416
 480
 395
 480
 400
 492
 444
 427
 482
 423
 496
 421
 514
 431
 521
 486
 454
 505
 411
 467
 398
 515
 448
 489
 465
 404
 475
 402
 468
 401
 596
 681
 807
 752
 517
 433
 308
 399
 369
 500
 458
 480
 493
 414
 480
 449
 551
 471
 566
 532
 535
 575
 513
 587
 524
 625
 555
 631
 595
 569
 623
 539
 607
 511
 588
 478
 504
 484
 427
 468
 384
 455
 380
 455
 375
 427
 441
 384
 450
 378
 460
 377
 480
 420
 409
 430
 365
 451
 378
 472
 397
 489
 437
 423
 464
 384
 451
 374
 464
 388
 455
 428
 391
 463
 395
 466
 399
 519
 444
 496
 483
 439
 489
 399
 470
 376
 463
 391
 433
 449
 375
 449
 403
 561
 632
 836
 746
 586
 451
 301
 358
 333
 460
 396
 504
 475
 460
 519
 452
 508
 439
 549
 476
 548
 534
 516
 580
 514
 604
 556
 668
 583
 625
 613
 542
 584
 493
 560
 454
 541
 454
 471
 489
 411
 458
 365
 448
 368
 461
 419
 432
 448
 359
 440
 384
 476
 384
 457
 424
 409
 457
 384
 453
 367
 462
 385
 451
 440
 396
 448
 379
 469
 391
 487
 411
 454
 445
 384
 448
 390
 467
 384
 484
 428
 460
 487
 411
 487
 435
 510
 409
 495
 423
 417
 451
 377
 433
 375
 491
 399
 468
 486
 573
 771
 740
 725
 469
 410
 284
 391
 423
 427
 501
 419
 496
 431
 550
 471
 513
 529
 463
 525
 475
 582
 501
 596
 557
 596
 632
 565
 615
 550
 624
 543
 625
 543
 527
 553
 448
 487
 399
 489
 407
 477
 436
 385
 448
 373
 448
 372
 466
 370
 443
 429
 392
 453
 384
 459
 387
 485
 403
 439
 444
 384
 441
 379
 483
 401
 487
 404
 448
 480
 399
 462
 384
 466
 387
 489
 453
 440
 481
 412
 490
 403
 506
 431
 508
 484
 455
 503
 412
 472
 389
 487
 415
 466
 443
 404
 461
 415
 598
 660
 806
 667
 530
 400
 281
 376
 359
 477
 414
 532
 473
 497
 519
 461
 534
 475
 572
 499
 591
 544
 529
 608
 543
 615
 543
 645
 565
 659
 614
 565
 593
 500
 564
 470
 541
 444
 497
 481
 397
 455
 385
 452
 366
 458
 393
 436
 448
 379
 443
 382
 476
 393
 480
 422
 448
 475
 391
 453
 381
 473
 391
 481
 438
 410
 467
 389
 444
 375
 471
 416
 503
 460
 406
 464
 397
 496
 423
 511
 425
 492
 483
 409
 455
 379
 455
 371
 470
 395
 428
 448
 428
 584
 662
 816
 665
 580
 361
 308
 369
 350
 449
 397
 493
 417
 510
 487
 480
 525
 463
 535
 472
 575
 505
 583
 568
 538
 608
 546
 633
 551
 647
 555
 599
 575
 508
 543
 453
 510
 409
 501
 412
 439
 448
 359
 427
 359
 453
 365
 461
 409
 412
 437
 364
 428
 369
 471
 388
 471
 421
 400
 458
 385
 445
 365
 456
 384
 467
 443
 387
 436
 371
 444
 368
 472
 414
 449
 432
 385
 459
 388
 463
 398
 500
 439
 476
 497
 415
 456
 373
 467
 369
 458
 406
 412
 454
 371
 436
 438
 655
 716
 808
 655
 463
 375
 264
 379
 354
 473
 399
 470
 480
 452
 503
 435
 528
 448
 543
 492
 543
 535
 501
 580
 521
 614
 536
 643
 575
 596
 603
 519
 572
 491
 559
 459
 530
 459
 440
 447
 366
 429
 363
 455
 377
 448
 404
 379
 436
 362
 440
 362
 461
 377
 441
 425
 393
 463
 395
 451
 361
 463
 387
 448
 439
 377
 431
 371
 473
 388
 480
 415
 433
 447
 367
 449
 399
 488
 390
 483
 452
 463
 492
 406
 452
 373
 459
 370
 455
 425
 399
 439
 359
 504
 542
 782
 711
 659
 470
 319
 334
 302
 439
 385
 478
 415
 468
 468
 414
 502
 441
 519
 436
 549
 508
 526
 561
 500
 581
 519
 615
 552
 635
 590
 568
 592
 502
 550
 454
 535
 430
 482
 427
 387
 433
 349
 429
 352
 440
 367
 446
 408
 360
 423
 358
 429
 352
 460
 387
 429
 432
 357
 411
 352
 460
 384
 464
 397
 425
 449
 371
 435
 355
 451
 374
 473
 415
 408
 448
 385
 471
 412
 502
 431
 504
 455
 395
 442
 363
 439
 353
 455
 390
 463
 449
 468
 633
 663
 725
 537
 469
 297
 318
 384
 379
 468
 393
 491
 416
 529
 467
 486
 528
 467
 540
 467
 567
 501
 605
 574
 560
 597
 540
 625
 548
 638
 551
 612
 552
 507
 534
 455
 504
 409
 480
 391
 441
 428
 373
 441
 369
 448
 360
 457
 396
 427
 448
 380
 441
 385
 476
 375
 466
 406
 420
 445
 375
 437
 365
 469
 399
 488
 436
 410
 463
 401
 475
 403
 506
 411
 487
 454
 400
 432
 359
 448
 369
 463
 391
 448
 463
 497
 675
 688
 728
 505
 443
 295
 331
 401
 385
 463
 398
 499
 422
 517
 468
 483
 519
 461
 543
 485
 587
 527
 603
 572
 556
 617
 539
 611
 539
 636
 536
 604
 575
 517
 534
 421
 488
 403
 493
 410
 425
 423
 381
 440
 363
 448
 359
 455
 379
 421
 450
 387
 448
 368
 455
 376
 473
 425
 415
 449
 376
 443
 364
 462
 377
 467
 439
 427
 472
 400
 483
 417
 518
 437
 497
 470
 405
 447
 371
 440
 378
 476
 402
 440
 483
 510
 704
 726
 768
 536
 466
 308
 333
 405
 373
 455
 407
 511
 436
 520
 475
 473
 525
 461
 543
 472
 575
 526
 615
 575
 569
 648
 564
 619
 550
 639
 548
 591
 560
 477
 535
 462
 520
 411
 480
 399
 435
 439
 369
 423
 356
 452
 372
 472
 408
 421
 448
 380
 441
 376
 464
 384
 461
 422
 415
 467
 393
 463
 384
 480
 401
 477
 441
 412
 463
 392
 471
 412
 531
 463
 492
 467
 388
 440
 367
 448
 364
 471
 395
 429
 458
 488
 684
 747
 807
 585
 492
 325
 309
 402
 376
 465
 398
 487
 420
 509
 476
 472
 540
 472
 530
 468
