12848
0
541
563
551
543
488
478
531
608
607
571
599
588
654
690
629
625
699
731
688
629
558
555
589
569
527
579
587
562
535
454
365
399
409
390
399
387
359
391
392
370
395
395
351
347
384
377
374
 406
 369
 367
 399
 385
 380
 406
 389
 376
 393
 377
 363
 396
 384
 348
 391
 358
 369
 404
 425
 404
 407
 400
 374
 385
 387
 341
 377
 376
 379
 384
 387
 380
 367
 392
 367
 371
 421
 403
 384
 416
 380
 368
 377
 384
 368
 415
 377
 379
 437
 430
 400
 387
 370
 372
 386
 406
 375
 415
 400
 376
 403
 423
 397
 408
 441
 429
 439
 440
 436
 405
 451
 384
 412
 429
 412
 388
 424
 399
 430
 430
 449
 435
 448
 412
 376
 484
 545
 633
 725
 739
 662
 547
 396
 268
 265
 311
 337
 373
 438
 406
 469
 463
 459
 439
 487
 454
 488
 470
 474
 451
 477
 457
 465
 486
 492
 470
 501
 497
 511
 533
 534
 508
 560
 566
 568
 569
 574
 532
 575
 615
 624
 626
 636
 606
 614
 631
 548
 543
 575
 575
 572
 560
 472
 430
 430
 422
 391
 423
 385
 385
 448
 413
 388
 398
 364
 371
 384
 369
 367
 399
 431
 372
 413
 397
 373
 375
 394
 387
 397
 427
 381
 401
 415
 374
 331
 343
 339
 356
 396
 384
 395
 436
 384
 359
 355
 384
 356
 383
 349
 355
 398
 389
 342
 379
 371
 401
 451
 416
 334
 315
 375
 375
 365
 335
 319
 352
 384
 388
 349
 399
 356
 375
 403
 384
 324
 366
 353
 363
 407
 419
 378
 415
 341
 329
 338
 384
 349
 376
 342
 255
 269
 300
 349
 451
 560
 599
 615
 570
 412
 285
 210
 179
 175
 204
 272
 371
 452
 415
 386
 419
 432
 430
 464
 463
 457
 503
 494
 469
 518
 527
 514
 543
 551
 542
 590
 585
 534
 527
 552
 564
 585
 629
 604
 603
 639
 616
 615
 658
 633
 629
 671
 647
 636
 661
 632
 572
 579
 534
 487
 511
 485
 436
 439
 413
 363
 399
 389
 364
 375
 384
 358
 367
 384
 372
 384
 398
 350
 337
 396
 384
 385
 413
 368
 323
 350
 335
 355
 411
 392
 343
 361
 358
 359
 464
 443
 360
 319
 304
 319
 380
 399
 357
 385
 386
 346
 365
 406
 382
 396
 385
 319
 295
 354
 335
 353
 401
 372
 342
 395
 403
 403
 449
 378
 319
 356
 361
 335
 398
 395
 374
 413
 429
 417
 460
 451
 371
 367
 378
 341
 359
 398
 360
 377
 423
 372
 347
 381
 368
 368
 399
 348
 368
 513
 608
 639
 667
 527
 316
 252
 184
 180
 252
 276
 287
 370
 391
 384
 444
 451
 393
 420
 433
 389
 424
 472
 422
 423
 444
 419
 438
 533
 499
 454
 518
 479
 439
 524
 502
 489
 575
 543
 493
 569
 553
 541
 629
 624
 561
 605
 585
 551
 616
 631
 542
 540
 493
 428
 457
 463
 391
 421
 465
 407
 373
 393
 335
 286
 331
 285
 272
 352
 317
 308
 385
 384
 359
 421
 367
 277
 354
 384
 324
 375
 337
 324
 364
 385
 335
 362
 375
 317
 335
 358
 337
 343
 413
 370
 384
 485
 430
 431
 478
 374
 335
 377
 345
 348
 384
 356
 344
 433
 403
 306
 396
 385
 361
 432
 411
 380
 424
 411
 375
 431
 498
 449
 453
 450
 352
 368
 452
 448
 413
 467
 389
 384
 453
 399
 415
 448
 359
 313
 413
 407
 412
 533
 560
 599
 686
 583
 384
 291
 197
 177
 214
 268
 275
 379
 414
 373
 414
 436
 388
 407
 476
 422
 433
 491
 440
 430
 500
 463
 439
 511
 475
 454
 542
 518
 480
 559
 531
 487
 573
 565
 522
 599
 592
 547
 615
 615
 568
 609
 611
 555
 596
 604
 546
 545
 563
 487
 469
 493
 414
 384
 438
 386
 356
 419
 379
 343
 418
 376
 328
 393
 361
 313
 392
 376
 324
 401
 384
 331
 397
 400
 341
 392
 387
 331
 375
 401
 347
 364
 400
 348
 355
 403
 356
 348
 412
 357
 342
 415
 374
 335
 415
 375
 339
 409
 375
 327
 406
 391
 344
 431
 409
 359
 431
 427
 371
 417
 405
 343
 384
 387
 331
 355
 390
 334
 343
 393
 349
 336
 395
 347
 363
 479
 513
 569
 667
 572
 393
 323
 195
 175
 207
 231
 240
 368
 388
 357
 427
 437
 390
 453
 453
 404
 444
 464
 415
 437
 471
 425
 439
 504
 451
 445
 513
 471
 453
 543
 511
 492
 575
 543
 513
 600
 577
 543
 632
 608
 561
 637
 619
 559
 628
 613
 552
 584
 560
 480
 485
 484
 408
 415
 428
 362
 363
 397
 335
 335
 399
 353
 326
 391
 352
 317
 397
 363
 334
 415
 385
 332
 406
 377
 337
 415
 396
 347
 415
 405
 352
 403
 401
 352
 391
 399
 343
 363
 399
 347
 364
 419
 368
 359
 415
 371
 355
 421
 375
 347
 428
 388
 357
 439
 414
 371
 454
 423
 384
 451
 423
 355
 409
 397
 344
 405
 401
 352
 399
 397
 342
 379
 414
 387
 456
 569
 611
 664
 685
 527
 363
 315
 211
 185
 287
 299
 312
 423
 411
 379
 468
 448
 407
 485
 465
 400
 469
 470
 432
 493
 493
 440
 483
 500
 460
 503
 525
 480
 501
 547
 503
 513
 569
 534
 526
 613
 572
 561
 638
 600
 570
 646
 624
 574
 636
 593
 529
 585
 540
 464
 508
 456
 384
 423
 409
 348
 388
 380
 326
 347
 375
 324
 335
 373
 321
 332
 385
 333
 327
 393
 352
 325
 398
 364
 336
 408
 368
 324
 403
 379
 336
 408
 388
 339
 415
 387
 337
 392
 384
 335
 384
 385
 340
 372
 389
 343
 359
 398
 343
 345
 412
 366
 354
 419
 375
 359
 437
 399
 367
 437
 387
 339
 415
 385
 338
 415
 389
 342
 411
 391
 333
 392
 394
 364
 475
 543
 583
 688
 668
 518
 391
 294
 182
 181
 243
 247
 296
 408
 389
 376
 457
 424
 396
 477
 443
 407
 489
 470
 427
 505
 481
 433
 511
 500
 451
 515
 515
 469
 528
 535
 495
 529
 560
 517
 555
 596
 551
 571
 626
 579
 573
 639
 591
 568
 634
 575
 537
 591
 534
 473
 525
 475
 407
 468
 422
 365
 424
 397
 344
 412
 400
 352
 393
 385
 342
 384
 397
 349
 367
 398
 348
 356
 408
 356
 354
 408
 365
 351
 415
 375
 359
 423
 391
 361
 432
 408
 365
 431
 407
 368
 423
 407
 362
 415
 411
 364
 413
 407
 361
 401
 414
 375
 404
 436
 389
 391
 427
 373
 360
 414
 371
 355
 421
 376
 348
 415
 384
 355
 431
 423
 448
 574
 625
 605
 622
 494
 314
 280
 224
 184
 255
 308
 311
 396
 422
 387
 421
 450
 411
 425
 473
 428
 423
 485
 448
 433
 509
 477
 455
 523
 491
 460
 535
 510
 480
 557
 539
 499
 575
 564
 522
 598
 595
 551
 603
 608
 563
 601
 611
 561
 575
 591
 527
 521
 537
 468
 444
 473
 416
 385
 435
 384
 351
 417
 384
 351
 419
 386
 338
 411
 389
 343
 409
 395
 352
 415
 399
 352
 408
 404
 356
 401
 410
 367
 398
 414
 363
 375
 419
 372
 367
 423
 388
 369
 427
 384
 363
 438
 399
 376
 441
 411
 375
 453
 433
 391
 462
 440
 391
 448
 428
 368
 410
 405
 359
 403
 406
 357
 389
 406
 366
 384
 423
 403
 480
 599
 632
 627
 624
 444
 287
 275
 214
 197
 312
 327
 335
 440
 429
 392
 469
 455
 416
 486
 473
 424
 472
 475
 433
 480
 492
 449
 480
 499
 455
 488
 524
 483
 492
 543
 507
 510
 575
 547
 532
 611
 582
 562
 633
 603
 561
 636
 607
 560
 624
 584
 519
 564
 526
 454
 487
 464
 397
 436
 423
 365
 388
 400
 350
 365
 399
 352
 360
 408
 363
 360
 415
 371
 358
 423
 385
 356
 423
 389
 355
 436
 406
 361
 425
 403
 358
 423
 409
 357
 419
 411
 359
 411
 412
 364
 399
 409
 363
 396
 419
 372
 375
 421
 375
 376
 435
 396
 379
 451
 415
 392
 459
 415
 384
 443
 407
 360
 432
 410
 361
 430
 411
 362
 422
 411
 368
 434
 479
 500
 631
 697
 647
 573
 463
 299
 242
 263
 231
 284
 391
 387
 387
 462
 428
 399
 481
 458
 427
 498
 467
 432
 511
 489
 448
 522
 507
 463
 528
 524
 477
 529
 527
 487
 535
 554
 517
 543
 583
 546
 565
 611
 569
 575
 633
 588
 566
 627
 583
 548
 603
 553
 499
 543
 492
 431
 488
 453
 390
 449
 413
 357
 419
 408
 357
 409
 405
 356
 398
 403
 364
 391
 413
 360
 369
 415
 368
 368
 421
 373
 368
 423
 377
 356
 423
 387
 359
 427
 397
 358
 433
 408
 359
 432
 411
 369
 431
 419
 363
 415
 414
 365
 413
 412
 365
 399
 419
 376
 389
 423
 372
 377
 435
 389
 380
 445
 407
 392
 461
 419
 391
 459
 416
 373
 440
 407
 368
 435
 419
 371
 436
 415
 365
 422
 421
 397
 497
 571
 609
 697
 656
 503
 385
 307
 207
 221
 299
 308
 347
 440
 412
 393
 470
 440
 415
 496
 462
 428
 495
 470
 437
 516
 499
 457
 526
 516
 463
 527
 522
 485
 538
 543
 499
 540
 561
 523
 552
 593
 551
 567
 616
 572
 575
 631
 589
 567
 627
 575
 531
 590
 531
 480
 524
 473
 411
 469
 436
 379
 438
 415
 368
 425
 409
 355
 404
 405
 358
 397
 405
 359
 385
 411
 362
 372
 422
 371
 366
 419
 376
 361
 425
 384
 361
 432
 394
 363
 438
 404
 366
 443
 418
 369
 435
 417
 367
 431
 423
 369
 419
 420
 369
 414
 419
 370
 404
 420
 374
 395
 431
 379
 376
 432
 391
 384
 448
 409
 390
 463
 433
 399
 467
 425
 384
 448
 417
 371
 441
 419
 374
 443
 430
 373
 422
 419
 381
 455
 500
 532
 623
 648
 542
 438
 347
 221
 199
 263
 261
 308
 413
 405
 395
 476
 441
 418
 491
 463
 432
 506
 488
 441
 518
 497
 456
 525
 511
 465
 522
 524
 479
 536
 543
 504
 537
 560
 515
 540
 588
 547
 555
 612
 567
 565
 628
 575
 559
 625
 575
 543
 603
 550
 487
 537
 493
 430
 482
 445
 384
 440
 420
 369
 428
 415
 363
 411
 408
 359
 397
 414
 368
 385
 411
 364
 371
 424
 371
 364
 425
 385
 366
 436
 393
 369
 438
 399
 366
 437
 413
 371
 448
 415
 369
 440
 422
 372
 427
 415
 370
 415
 419
 371
 415
 420
 373
 408
 428
 377
 385
 429
 382
 379
 436
 387
 371
 439
 408
 379
 451
 419
 390
 469
 436
 399
 472
 435
 382
 443
 418
 368
 432
 419
 368
 419
 419
 370
 412
 422
 385
 448
 522
 562
 639
 652
 517
 381
 309
 191
 181
 255
 271
 310
 432
 424
 398
 480
 451
 413
 496
 479
 438
 505
 487
 448
 511
 503
 456
 510
 509
 465
 513
 523
 483
 515
 543
 508
 523
 569
 525
 526
 595
 554
 551
 619
 582
 561
 632
 597
 568
 634
 595
 547
 606
 560
 492
 540
 502
 430
 477
 458
 391
 436
 414
 359
 408
 407
 364
 391
 409
 360
 377
 414
 365
 372
 429
 384
 368
 425
 384
 361
 435
 393
 365
 435
 404
 367
 440
 413
 370
 439
 415
 370
 434
 423
 376
 428
 415
 368
 416
 419
 375
 416
 422
 375
 398
 423
 376
 379
 429
 381
 375
 435
 388
 369
 440
 399
 373
 442
 413
 376
 448
 412
 371
 444
 419
 371
 448
 428
 384
 447
 441
 395
 448
 449
 405
 440
 448
 393
 405
 438
 380
 390
 420
 371
 375
 433
 385
 371
 438
 397
 388
 494
 509
 564
 710
 671
 565
 497
 345
 221
 268
 263
 266
 387
 420
 392
 455
 456
 411
 459
 471
 432
 463
 490
 448
 465
 509
 464
 457
 519
 480
 469
 536
 499
 481
 556
 521
 497
 575
 551
 519
 599
 583
 542
 624
 608
 563
 628
 615
 570
 617
 616
 559
 600
 586
 521
 537
 530
 461
 460
 473
 412
 399
 448
 387
 368
 421
 380
 353
 424
 387
 354
 423
 387
 351
 427
 400
 353
 428
 404
 360
 427
 411
 361
 419
 412
 361
 403
 408
 361
 394
 412
 361
 392
 415
 370
 376
 415
 369
 363
 424
 379
 360
 429
 388
 361
 431
 395
 358
 431
 405
 359
 433
 405
 362
 433
 414
 363
 424
 415
 376
 419
 420
 365
 401
 412
 367
 390
 419
 374
 384
 425
 376
 375
 432
 389
 380
 451
 411
 391
 465
 431
 400
 471
 435
 385
 448
 415
 365
 435
 417
 367
 434
 421
 372
 428
 420
 375
 444
 487
 523
 635
 688
 613
 496
 397
 240
 193
 253
 248
 289
 415
 405
 396
 471
 444
 415
 500
 471
 436
 509
 492
 449
 519
 507
 455
 512
 509
 467
 519
 523
 480
 529
 539
 499
 534
 563
 524
 543
 596
 543
 547
 609
 571
 561
 631
 590
 564
 631
 591
 552
 609
 564
 508
 558
 511
 444
 494
 457
 391
 448
 422
 366
 411
 408
 355
 399
 407
 354
 377
 401
 355
 375
 408
 358
 363
 415
 371
 362
 422
 380
 355
 424
 387
 356
 427
 397
 358
 431
 408
 359
 432
 414
 363
 432
 406
 355
 415
 410
 364
 407
 408
 361
 391
 409
 363
 381
 415
 368
 370
 422
 371
 367
 428
 377
 359
 425
 390
 361
 432
 395
 360
 433
 405
 364
 435
 415
 366
 432
 414
 368
 433
 423
 376
 427
 428
 384
 430
 439
 394
 415
 436
 384
 384
 424
 371
 367
 429
 389
 369
 433
 384
 358
 433
 408
 413
 534
 577
 591
 644
 537
 358
 310
 223
 179
 251
 297
 312
 403
 434
 397
 444
 460
 413
 446
 476
 432
 448
 491
 444
 444
 505
 461
 448
 519
 484
 464
 539
 507
 480
 559
 527
 496
 581
 561
 526
 600
 581
 540
 607
 602
 551
 608
 608
 554
 591
 591
 542
 551
 561
 496
 487
 501
 433
 419
 454
 391
 367
 428
 375
 345
 413
 377
 343
 412
 377
 339
 415
 391
 345
 420
 399
 353
 422
 404
 353
 409
 404
 356
 407
 407
 364
 389
 406
 359
 376
 415
 364
 368
 421
 373
 364
 419
 372
 354
 423
 384
 360
 427
 392
 356
 427
 399
 358
 427
 407
 366
 432
 411
 360
 411
 408
 362
 413
 412
 364
 402
 411
 364
 388
 415
 369
 375
 424
 373
 368
 427
 388
 380
 448
 411
 377
 451
 421
 395
 467
 432
 385
 451
 415
 362
 432
 411
 364
 432
 415
 370
 417
 415
 368
 411
 449
 462
 551
 639
 609
 575
 484
 301
 208
 227
 194
 224
 353
 367
 374
 459
 433
 403
 480
 458
 415
 496
 475
 433
 505
 492
 448
 509
 501
 454
 505
 510
 468
 511
 535
 491
 514
 543
 504
 519
 575
 534
 542
 604
 559
 550
 620
 585
 561
 630
 590
 556
 619
 575
 519
 572
 526
 465
 509
 471
 397
 448
 423
 364
 412
 404
 350
 389
 391
 345
 375
 398
 347
 359
 401
 356
 356
 411
 367
 353
 417
 371
 352
 419
 384
 353
 423
 391
 354
 427
 404
 358
 430
 405
 352
 417
 406
 355
 408
 404
 354
 403
 406
 357
 392
 403
 355
 379
 411
 363
 368
 420
 369
 359
 421
 379
 357
 428
 392
 361
 433
 395
 359
 433
 404
 364
 440
 415
 363
 427
 412
 365
 427
 419
 367
 415
 422
 379
 417
 436
 392
 430
 453
 403
 407
 439
 384
 375
 426
 384
 368
 433
 391
 366
 435
 401
 363
 435
 419
 413
 545
 601
 629
 688
 589
 397
 331
 245
 185
 252
 304
 318
 397
 431
 396
 420
 460
 415
 425
 479
 433
 441
 499
 457
 441
 507
 471
 451
 526
 495
 463
 541
 517
 480
 560
 544
 503
 575
 567
 525
 597
 590
 543
 609
 612
 563
 607
 613
 568
 591
 605
 548
 550
 575
 508
 488
 513
 443
 410
 464
 403
 369
 429
 384
 349
 418
 384
 348
 419
 391
 347
 417
 396
 348
 412
 403
 353
 407
 404
 356
 410
 413
 358
 398
 404
 360
 384
 411
 364
 369
 417
 367
 358
 421
 375
 354
 426
 387
 358
 432
 389
 355
 430
 401
 359
 434
 407
 358
 428
 411
 361
 420
 413
 364
 409
 411
 363
 402
 420
 372
 395
 413
 368
 384
 423
 374
 376
 429
 386
 372
 434
 394
 372
 445
 416
 384
 461
 436
 394
 470
 440
 390
 452
 423
 368
 429
 413
 368
 422
 417
 361
 404
 407
 364
 398
 437
 438
 507
 637
 646
 633
 561
 375
 246
 245
 197
 207
 337
 361
 365
 455
 435
 399
 483
 465
 421
 492
 486
 435
 495
 487
 440
 497
 495
 451
 500
 509
 466
 496
 529
 486
 503
 556
 511
 515
 579
 542
 531
 614
 575
 560
 629
 591
 565
 636
 603
 560
 623
 590
 525
 575
 537
 463
 504
 470
 399
 440
 421
 368
 399
 404
 345
 377
 389
 343
 361
 397
 348
 353
 406
 357
 348
 414
 367
 348
 422
 384
 351
 432
 397
 355
 423
 396
 356
 429
 405
 358
 423
 407
 356
 415
 409
 360
 403
 401
 359
 391
 412
 362
 376
 407
 359
 374
 415
 369
 368
 420
 374
 356
 423
 384
 360
 429
 391
 363
 432
 403
 355
 427
 407
 361
 434
 414
 367
 431
 422
 372
 424
 422
 375
 422
 440
 396
 423
 448
 396
 407
 447
 391
 380
 428
 377
 368
 429
 388
 368
 435
 395
 364
 438
 408
 389
 501
 530
 568
 693
 647
 504
 421
 292
 184
 225
 253
 265
 371
 419
 392
 433
 461
 417
 428
 476
 433
 438
 500
 456
 441
 511
 475
 453
 526
 491
 463
 540
 520
 483
 560
 534
 496
 575
 563
 524
 597
 591
 549
 609
 612
 568
 610
 624
 572
 604
 614
 557
 568
 589
 520
 501
 523
 454
 428
 473
 416
 380
 435
 389
 353
 422
 390
 348
 417
 389
 350
 426
 399
 347
 415
 403
 354
 415
 408
 359
 406
 409
 363
 398
 414
 371
 385
 423
 368
 376
 419
 370
 367
 422
 377
 361
 428
 387
 359
 429
 396
 364
 435
 407
 357
 428
 408
 360
 433
 411
 359
 423
 413
 362
 416
 415
 368
 409
 411
 363
 391
 418
 372
 384
 423
 375
 372
 433
 384
 371
 433
 390
 372
 448
 416
 384
 458
 427
 391
 469
 442
 391
 452
 424
 368
 427
 415
 368
 428
 415
 363
 411
 415
 367
 407
 444
 446
 523
 639
 625
 599
 520
 336
 216
 224
 190
 201
 339
 372
 376
 448
 431
 398
 479
 463
 423
 499
 484
 439
 503
 495
 449
 504
 507
 463
 507
 524
 482
 519
 536
 491
 517
 561
 519
 527
 588
 549
 546
 617
 583
 566
 639
 603
 573
 647
 615
 570
 632
 589
 533
 584
 540
 467
 512
 475
 407
 449
 432
 374
 410
 414
 358
 385
 396
 346
 368
 404
 355
 365
 412
 364
 360
 417
 373
 360
 433
 389
 363
 428
 393
 359
 434
 408
 368
 439
 415
 367
 433
 415
 367
 427
 415
 361
 414
 412
 362
 408
 415
 367
 387
 416
 368
 378
 424
 373
 369
 427
 384
 365
 427
 387
 363
 433
 391
 369
 439
 409
 368
 438
 413
 367
 437
 415
 366
 427
 419
 371
 429
 429
 375
 415
 417
 375
 415
 437
 395
 417
 455
 408
 408
 457
 401
 381
 443
 395
 369
 435
 398
 367
 439
 404
 367
 439
 412
 375
 481
 507
 551
 696
 684
 566
 481
 345
 212
 228
 241
 247
 335
 411
 389
 423
 463
 421
 423
 478
 437
 431
 499
 461
 441
 515
 481
 451
 528
 502
 472
 545
 521
 476
 553
 536
 496
 569
 561
 519
 584
 588
 545
 600
 608
 571
 607
 628
 575
 588
 624
 571
 562
 598
 530
 505
 540
 473
 432
 480
 422
 380
 440
 400
 360
 425
 387
 337
 410
 392
 342
 412
 396
 346
 409
 400
 352
 402
 401
 354
 392
 404
 365
 389
 416
 359
 367
 414
 366
 361
 420
 380
 360
 423
 384
 363
 432
 396
 362
 432
 397
 355
 430
 408
 360
 432
 409
 360
 422
 411
 365
 414
 409
 357
 405
 410
 364
 395
 413
 365
 384
 419
 367
 371
 423
 376
 369
 429
 387
 357
 428
 393
 363
 436
 400
 365
 439
 414
 371
 444
 420
 370
 448
 437
 389
 445
 437
 390
 439
 444
 392
 414
 423
 368
 387
 413
 364
 375
 426
 375
 365
 419
 373
 357
 434
 428
 469
 609
 655
 635
 646
 487
 303
 279
 223
 196
 315
 355
 347
 432
 436
 391
 448
 455
 416
 455
 471
 429
 451
 487
 448
 455
 503
 450
 456
 516
 480
 467
 535
 499
 479
 556
 527
 502
 583
 565
 532
 615
 600
 560
 627
 611
 565
 633
 621
 567
 615
 604
 542
 567
 549
 480
 484
 482
 415
 412
 442
 381
 366
 411
 364
 344
 408
 355
 337
 405
 367
 337
 413
 377
 344
 412
 384
 342
 415
 398
 352
 416
 403
 353
 407
 405
 353
 403
 401
 356
 390
 404
 363
 384
 411
 357
 361
 413
 368
 356
 419
 375
 352
 422
 384
 351
 425
 387
 355
 427
 399
 361
 433
 402
 349
 421
 405
 355
 420
 414
 361
 409
 407
 359
 397
 409
 364
 391
 414
 368
 380
 423
 382
 379
 431
 380
 368
 440
 405
 388
 460
 425
 393
 463
 430
 384
 448
 411
 359
 435
 415
 368
 428
 410
 359
 417
 413
 365
 412
 439
 441
 535
 639
 625
 608
 521
 339
 232
 235
 192
 220
 343
 358
 369
 459
 432
 404
 484
 458
 421
 496
 473
 430
 503
 487
 443
 507
 504
 456
 515
 515
 469
 519
 533
 491
 526
 545
 501
 524
 575
 540
 549
 611
 574
 563
 632
 595
 572
 639
 604
 571
 633
 587
 527
 575
 529
 461
 512
 469
 399
 451
 426
 368
 415
 405
 352
 390
 394
 348
 384
 398
 350
 373
 399
 348
 358
 408
 361
 360
 420
 380
 360
 432
 389
 360
 432
 399
 364
 436
 404
 358
 433
 407
 359
 429
 413
 364
 425
 411
 355
 412
 412
 361
 399
 410
 364
 385
 414
 365
 377
 416
 366
 370
 432
 384
 367
 428
 384
 359
 432
 395
 364
 440
 407
 363
 437
 414
 366
 439
 415
 367
 437
 425
 377
 436
 436
 389
 435
 440
 391
 424
 436
 380
 384
 419
 367
 369
 420
 370
 366
 428
 384
 363
 439
 421
 445
 575
 615
 605
 625
 495
 324
 299
 232
 185
 286
 332
 341
 436
 447
 402
 454
 458
 415
 455
 475
 431
 451
 487
 441
 451
 503
 461
 455
 523
 492
 470
 541
 500
 475
 555
 526
 500
 583
 564
 531
 614
 601
 558
 638
 623
 575
 635
 625
 574
 617
 611
 543
 572
 560
 487
 491
 487
 413
 410
 438
 377
 367
 422
 368
 347
 411
 371
 343
 413
 375
 341
 411
 377
 342
 419
 394
 355
 427
 408
 353
 415
 408
 358
 412
 409
 360
 403
 407
 363
 392
 416
 364
 385
 417
 367
 371
 419
 371
 363
 425
 384
 356
 427
 398
 364
 438
 397
 356
 432
 403
 359
 433
 408
 360
 429
 413
 361
 423
 413
 363
 412
 411
 363
 399
 415
 369
 387
 419
 367
 379
 431
 384
 385
 444
 412
 402
 466
 418
 387
 450
 408
 366
 435
 408
 368
 440
 415
 367
 431
 412
 364
 432
 425
 412
 519
 601
 629
 675
 619
 445
 344
 277
 200
 225
 313
 327
 367
 448
 416
 404
 474
 438
 419
 487
 455
 431
 503
 480
 443
 515
 495
 454
 523
 511
 471
 538
 532
 491
 543
 543
 507
 555
 565
 529
 569
 596
 564
 587
 627
 587
 593
 639
 597
 584
 637
 586
 550
 593
 536
 480
 523
 463
 407
 457
 415
 363
 431
 403
 355
 414
 392
 342
 400
 391
 343
 387
 388
 346
 376
 391
 348
 374
 399
 356
 363
 407
 360
 356
 414
 369
 355
 422
 385
 359
 427
 391
 355
 423
 399
 355
 431
 406
 358
 423
 405
 359
 423
 411
 359
 411
 410
 362
 401
 413
 368
 388
 416
 365
 371
 415
 368
 374
 428
 373
 357
 421
 384
 359
 436
 395
 363
 439
 408
 368
 448
 419
 373
 451
 431
 384
 453
 445
 391
 451
 443
 384
 421
 409
 352
 386
 409
 362
 382
 415
 364
 367
 418
 368
 365
 461
 471
 549
 705
 675
 591
 526
 351
 223
 255
 243
 243
 380
 399
 374
 450
 450
 404
 462
 461
 415
 461
 476
 433
 471
 487
 446
 465
 505
 462
 472
 527
 480
 470
 540
 504
 485
 563
 536
 509
 591
 574
 541
 623
 601
 564
 643
 623
 575
 647
 632
 571
 619
 595
 521
 548
 525
 448
 459
 457
 393
 396
 418
 358
 363
 405
 351
 345
 401
 356
 337
 408
 364
 335
 409
 376
 340
 415
 384
 343
 423
 402
 350
 425
 403
 351
 419
 405
 353
 409
 408
 356
 400
 408
 354
 384
 411
 360
 368
 415
 361
 359
 417
 369
 362
 424
 378
 353
 425
 385
 353
 431
 398
 357
 434
 406
 351
 429
 407
 360
 423
 411
 355
 419
 411
 360
 414
 418
 368
 406
 428
 384
 409
 448
 392
 387
 432
 377
 359
 427
 377
 353
 426
 384
 356
 431
 391
 356
 439
 429
 433
 571
 624
 604
 624
 504
 326
 288
 232
 185
 259
 319
 326
 401
 432
 391
 423
 459
 416
 426
 479
 431
 432
 492
 449
 432
 507
 469
 443
 520
 490
 457
 535
 511
 475
 556
 536
 492
 571
 561
 519
 591
 591
 543
 604
 607
 560
 598
 610
 560
 575
 598
 531
 531
 548
 471
 450
 481
 411
 384
 432
 376
 343
 408
 366
 327
 398
 368
 323
 395
 369
 319
 396
 376
 327
 399
 384
 332
 384
 377
 331
 379
 385
 340
 374
 397
 345
 361
 399
 349
 350
 405
 353
 348
 408
 359
 339
 407
 365
 337
 412
 380
 340
 411
 380
 337
 413
 393
 343
 412
 400
 352
 412
 401
 345
 400
 400
 350
 391
 406
 361
 389
 425
 376
 385
 428
 372
 356
 414
 363
 344
 411
 369
 344
 415
 379
 345
 415
 387
 359
 471
 503
 542
 679
 639
 511
 429
 291
 181
 208
 227
 231
 335
 392
 371
 407
 441
 398
 413
 467
 421
 426
 483
 441
 428
 497
 462
 441
 513
 483
 453
 524
 497
 467
 546
 524
 488
 564
 550
 511
 579
 575
 542
 599
 608
 572
 609
 619
 579
 599
 624
 573
 575
 590
 524
 504
 536
 465
 427
 460
 403
 367
 421
 384
 348
 407
 378
 335
 404
 384
 338
 402
 384
 331
 396
 384
 337
 391
 389
 343
 391
 394
 347
 371
 391
 343
 363
 399
 351
 355
 407
 363
 353
 411
 367
 352
 413
 375
 352
 420
 384
 351
 419
 391
 347
 417
 395
 352
 416
 406
 355
 411
 399
 348
 400
 397
 352
 388
 404
 360
 387
 418
 376
 385
 432
 388
 385
 443
 398
 375
 433
 387
 352
 415
 378
 349
 419
 388
 349
 421
 395
 351
 423
 430
 437
 569
 650
 644
 649
 545
 363
 287
 237
 187
 248
 324
 327
 375
 434
 396
 404
 463
 423
 409
 473
 441
 420
 489
 461
 431
 505
 481
 442
 515
 495
 455
 531
 515
 480
 543
 539
 498
 557
 563
 525
 573
 591
 556
 589
 619
 575
 590
 631
 582
 582
 620
 560
 531
 568
 501
 453
 495
 438
 391
 448
 403
 355
 420
 389
 344
 406
 385
 335
 399
 387
 339
 397
 391
 345
 391
 391
 345
 378
 394
 348
 366
 400
 356
 360
 409
 363
 355
 415
 371
 356
 420
 381
 355
 421
 384
 350
 419
 395
 355
 427
 408
 356
 421
 403
 355
 412
 408
 357
 407
 405
 357
 396
 406
 359
 387
 411
 363
 375
 416
 367
 368
 423
 384
 364
 432
 391
 372
 440
 402
 379
 455
 429
 393
 463
 431
 384
 440
 414
 364
 423
 411
 363
 414
 414
 365
 399
 407
 363
 420
 480
 494
 597
 688
 625
 525
 444
 286
 211
 259
 240
 265
 390
 396
 388
 466
 444
 408
 486
 463
 425
 496
 474
 433
 506
 494
 448
 505
 503
 455
 502
 511
 469
 504
 534
 492
 511
 558
 511
 527
 582
 543
 543
 623
 583
 569
 637
 600
 572
 639
 605
 559
 624
 579
 513
 564
 519
 448
 496
 460
 391
 444
 420
 359
 404
 399
 347
 384
 397
 352
 370
 406
 352
 359
 409
 359
 356
 419
 370
 358
 425
 384
 352
 427
 391
 357
 433
 403
 359
 440
 415
 363
 438
 415
 368
 427
 417
 364
 420
 413
 359
 408
 414
 363
 396
 418
 367
 384
 427
 376
 374
 434
 387
 372
 434
 391
 365
 440
 399
 369
 448
 416
 380
 459
 437
 394
 463
 434
 375
 436
 419
 368
 420
 415
 361
 403
 411
 363
 399
 409
 364
 399
 475
 482
 572
 664
 595
 480
 416
 268
 190
 252
 239
 261
 387
 397
 379
 463
 441
 403
 480
 461
 420
 487
 475
 431
 490
 484
 439
 487
 498
 453
 483
 511
 467
 483
 531
 489
 496
 551
 509
 511
 581
 549
 536
 615
 583
 559
 635
 599
 560
 635
 608
 549
 608
 568
 496
 542
 504
 428
 470
 441
 378
 413
 403
 348
 379
 391
 340
 359
 387
 335
 343
 393
 348
 340
 402
 361
 341
 409
 367
 343
 419
 384
 352
 423
 395
 353
 428
 401
 352
 423
 404
 353
 416
 404
 350
 399
 404
 356
 398
 403
 357
 390
 412
 358
 371
 412
 362
 359
 413
 368
 356
 421
 377
 352
 425
 393
 368
 440
 408
 376
 452
 428
 383
 450
 419
 363
 422
 403
 352
 406
 399
 351
 393
 399
 353
 384
 401
 365
 420
 496
 531
 624
 691
 595
 455
 375
 237
 183
 251
 254
 280
 399
 403
 377
 459
 443
 403
 480
 462
 415
 483
 473
 427
 485
 483
 437
 484
 492
 451
 483
 513
 469
 487
 536
 492
 496
 559
 515
 519
 588
 551
 540
 617
 588
 568
 639
 611
 572
 639
 608
 551
 606
 568
 496
 535
 496
 419
 455
 429
 368
 403
 397
 343
 375
 387
 340
 355
 389
 340
 343
 391
 343
 335
 398
 355
 332
 399
 360
 335
 410
 376
 344
 411
 384
 344
 417
 391
 343
 411
 394
 345
 403
 395
 345
 393
 395
 348
 390
 392
 346
 376
 400
 352
 364
 404
 357
 356
 411
 368
 352
 417
 377
 352
 419
 384
 351
 423
 395
 361
 439
 417
 376
 452
 429
 380
 435
 415
 356
 399
 395
 344
 388
 395
 347
 374
 400
 352
 370
 412
 387
 461
 583
 624
 637
 639
 485
 324
 293
 211
 186
 287
 319
 327
 433
 421
 380
 459
 443
 399
 472
 462
 415
 471
 471
 425
 473
 482
 439
 471
 499
 456
 473
 519
 475
 481
 543
 500
 504
 568
 531
 519
 595
 567
 543
 620
 593
 564
 639
 611
 563
 630
 597
 533
 581
 543
 471
 505
 471
 401
 434
 424
 355
 387
 391
 347
 365
 391
 341
 343
 395
 348
 340
 401
 360
 341
 412
 368
 340
 409
 372
 341
 415
 387
 343
 419
 391
 347
 415
 402
 351
 409
 399
 348
 398
 400
 350
 390
 393
 348
 379
 404
 356
 368
 408
 356
 356
 413
 368
 356
 420
 379
 353
 425
 387
 353
 425
 387
 352
 425
 401
 360
 438
 419
 376
 448
 436
 388
 438
 425
 368
 400
 404
 356
 384
 405
 359
 377
 411
 359
 367
 415
 376
 397
 503
 537
 585
 658
 568
 411
 359
 247
 183
 264
 277
 286
 403
 416
 384
 455
 448
 405
 463
 465
 417
 464
 472
 429
 463
 488
 441
 460
 501
 454
 455
 520
 477
 473
 535
 499
 487
 564
 529
 510
 591
 566
 535
 612
 588
 550
 628
 608
 557
 621
 601
 539
 582
 560
 492
 517
 492
 424
 442
 435
 375
 387
 408
 352
 353
 400
 349
 341
 401
 360
 340
 407
 371
 341
 411
 374
 341
 415
 389
 348
 424
 400
 352
 423
 403
 355
 415
 405
 353
 401
 403
 359
 391
 405
 355
 384
 408
 355
 371
 415
 359
 359
 414
 369
 354
 422
 384
 355
 423
 388
 352
 424
 396
 352
 429
 406
 363
 440
 423
 377
 445
 432
 379
 427
 417
 361
 399
 399
 355
 384
 407
 358
 371
 409
 358
 365
 420
 399
 452
 575
 604
 601
 617
 455
 297
 278
 207
 184
 287
 323
 329
 435
 433
 392
 462
 453
 409
 472
 470
 422
 473
 480
 436
 469
 491
 448
 467
 511
 467
 471
 531
 488
 481
 550
 511
 501
 575
 543
 527
 606
 580
 549
 627
 605
 566
 639
 624
 567
 624
 599
 536
 573
 543
 469
 495
 473
 407
 428
 425
 366
 384
 406
 351
 355
 403
 356
 348
 409
 361
 341
 409
 371
 343
 415
 379
 352
 421
 392
 350
 424
 401
 354
 423
 403
 355
 418
 406
 357
 406
 405
 355
 393
 405
 356
 386
 406
 362
 376
 416
 364
 368
 420
 376
 359
 425
 385
 359
 430
 391
 363
 435
 403
 359
 434
 405
 359
 435
 416
 365
 431
 415
 368
 424
 422
 374
 423
 433
 392
 425
 449
 399
 407
 448
 384
 387
 429
 377
 369
 429
 385
 368
 433
 393
 363
 433
 404
 388
 515
 555
 593
 710
 647
 504
 432
 308
 204
 262
 279
 287
 387
 423
 387
 435
 451
 413
 440
 480
 431
 439
 495
 451
 448
 516
 467
 455
 522
 485
 463
 537
 507
 475
 551
 527
 494
 573
 559
 519
 597
 587
 543
 612
 612
 564
 620
 619
 570
 610
 611
 557
 571
 581
 514
 506
 524
 452
 426
 461
 399
 371
 429
 384
 349
 416
 376
 343
 414
 380
 343
 415
 395
 349
 419
 399
 350
 415
 404
 354
 404
 399
 353
 396
 401
 353
 390
 402
 353
 371
 405
 355
 364
 414
 367
 359
 421
 377
 354
 422
 384
 351
 423
 391
 352
 428
 396
 351
 427
 404
 354
 423
 409
 360
 421
 411
 361
 408
 409
 361
 397
 413
 365
 384
 420
 369
 377
 420
 370
 369
 429
 385
 376
 444
 412
 391
 462
 423
 384
 449
 413
 363
 436
 412
 360
 429
 411
 358
 422
 409
 358
 411
 413
 393
 502
 575
 610
 658
 639
 465
 339
 285
 192
 196
 293
 311
 349
 439
 407
 387
 465
 437
 413
 488
 461
 423
 502
 483
 439
 512
 497
 450
 511
 505
 459
 514
 519
 473
 523
 534
 493
 534
 563
 523
 545
 593
 552
 561
 624
 575
 565
 629
 587
 561
 627
 583
 540
 592
 538
 480
 532
 479
 415
 469
 432
 370
 425
 402
 349
 401
 397
 344
 384
 390
 342
 369
 390
 341
 364
 396
 348
 357
 406
 353
 348
 409
 364
 344
 412
 372
 343
 415
 384
 347
 419
 391
 345
 419
 393
 347
 419
 398
 347
 411
 399
 352
 406
 404
 354
 391
 403
 356
 377
 407
 359
 366
 411
 359
 362
 415
 367
 358
 420
 377
 353
 424
 386
 355
 428
 394
 351
 427
 399
 355
 429
 415
 364
 431
 419
 376
 437
 435
 385
 426
 423
 369
 392
 410
 358
 369
 407
 357
 361
 418
 370
 355
 419
 377
 384
 491
 527
 571
 661
 588
 424
 371
 253
 183
 254
 268
 277
 393
 415
 380
 439
 448
 401
 454
 461
 420
 453
 473
 429
 450
 489
 443
 449
 506
 460
 452
 522
 484
 465
 539
 511
 483
 563
 536
 508
 590
 568
 532
 614
 596
 551
 621
 603
 553
 610
 600
 540
 575
 564
 498
 506
 500
 426
 434
 444
 384
 386
 418
 359
 351
 407
 358
 339
 406
 363
 337
 407
 373
 335
 412
 384
 341
 417
 393
 350
 422
 400
 350
 415
 403
 356
 406
 405
 353
 396
 406
 356
 380
 407
 360
 367
 413
 361
 365
 417
 368
 359
 419
 375
 356
 426
 384
 353
 427
 395
 354
 428
 404
 354
 427
 407
 360
 430
 412
 359
 419
 413
 361
 409
 411
 364
 397
 415
 369
 391
 432
 388
 398
 453
 405
 392
 448
 389
 365
 427
 385
 360
 433
 395
 360
 432
 401
 359
 436
 420
 395
 519
 561
 583
 658
 608
 431
 349
 255
 183
 225
 274
 287
 365
 432
 392
 405
 461
 419
 418
 482
 441
 425
 498
 463
 439
 516
 479
 449
 524
 497
 459
 537
 518
 476
 551
 541
 497
 563
 562
 518
 573
 583
 543
 591
 611
 567
 600
 620
 572
 584
 620
 560
 548
 586
 518
 484
 526
 461
 415
 472
 415
 373
 438
 399
 353
 424
 392
 345
 415
 395
 345
 414
 400
 345
 403
 399
 352
 395
 403
 355
 387
 407
 359
 375
 415
 359
 369
 415
 367
 363
 423
 379
 359
 427
 384
 355
 426
 392
 352
 424
 399
 355
 429
 405
 357
 424
 408
 359
 422
 410
 359
 411
 411
 362
 399
 411
 362
 387
 415
 363
 376
 424
 373
 368
 428
 384
 367
 434
 390
 368
 436
 402
 371
 448
 419
 384
 460
 439
 400
 472
 448
 391
 449
 428
 368
 415
 415
 366
 413
 417
 372
 403
 419
 370
 391
 441
 432
 504
 630
 639
 629
 591
 415
 272
 271
 218
 211
 344
 366
 372
 468
 448
 407
 487
 471
 425
 495
 487
 440
 497
 497
 451
 499
 507
 464
 496
 518
 473
 502
 537
 491
 507
 560
 518
 520
 590
 556
 543
 620
 588
 566
 644
 614
 575
 650
 621
 571
 639
 604
 543
 597
 556
 482
 523
 487
 419
 453
 437
 375
 412
 414
 361
 384
 411
 361
 368
 411
 359
 368
 418
 370
 360
 424
 382
 359
 432
 396
 365
 435
 405
 363
 440
 415
 366
 439
 419
 369
 437
 415
 363
 423
 417
 368
 415
 415
 369
 408
 422
 370
 389
 427
 377
 380
 434
 384
 373
 433
 387
 372
 437
 395
 368
 440
 406
 370
 448
 416
 372
 448
 419
 370
 438
 421
 373
 431
 427
 380
 431
 427
 380
 423
 435
 396
 425
 452
 405
 421
 463
 410
 408
 452
 395
 373
 437
 397
 369
 439
 399
 371
 443
 409
 372
 448
 436
 435
 569
 634
 639
 682
 575
 391
 323
 255
 192
 260
 322
 335
 411
 448
 403
 428
 467
 424
 433
 491
 448
 439
 507
 468
 448
 521
 484
 456
 531
 502
 468
 543
 521
 484
 564
 546
 504
 581
 573
 529
 597
 599
 556
 611
 624
 574
 611
 627
 575
 593
 620
 556
 554
 575
 503
 479
 511
 441
 409
 461
 408
 368
 431
 387
 349
 419
 387
 345
 419
 393
 348
 422
 400
 349
 415
 399
 352
 409
 405
 351
 397
 399
 355
 388
 408
 359
 375
 417
 368
 365
 420
 367
 368
 428
 378
 358
 429
 387
 360
 432
 396
 359
 431
 403
 359
 433
 412
 358
 425
 407
 357
 421
 412
 357
 411
 409
 359
 408
 416
 365
 391
 419
 369
 384
 428
 380
 375
 435
 387
 368
 439
 395
 376
 450
 415
 390
 463
 433
 393
 464
 432
 374
 439
 415
 361
 428
 420
 364
 418
 415
 363
 414
 419
 384
 454
 516
 539
 623
 647
 525
 399
 327
 208
 185
 263
 271
 312
 429
 415
 395
 480
 445
 414
 494
 468
 426
 503
 488
 438
 511
 500
 452
 514
 510
 462
 513
 519
 476
 515
 539
 496
 527
 559
 519
 537
 589
 545
 549
 615
 575
 564
 635
 594
 564
 633
 591
 543
 607
 559
 495
 545
 496
 429
 483
 448
 384
 439
 415
 359
 412
 404
 348
 391
 395
 347
 376
 401
 354
 366
 410
 360
 367
 415
 367
 359
 422
 375
 355
 432
 392
 361
 433
 400
 362
 435
 407
 364
 435
 414
 364
 433
 417
 367
 428
 415
 363
 416
 413
 363
 401
 414
 368
 391
 422
 370
 379
 432
 376
 370
 430
 385
 367
 435
 393
 368
 438
 399
 369
 448
 417
 379
 455
 435
 396
 469
 451
 397
 457
 435
 380
 423
 422
 371
 415
 419
 369
 406
 423
 373
 391
 430
 400
 445
 553
 575
 611
 633
 491
 337
 302
 215
 185
 292
 315
 340
 448
 438
 400
 480
 463
 421
 492
 483
 438
 495
 491
 444
 494
 503
 462
 494
 515
 471
 503
 536
 486
 503
 555
 511
 517
 584
 548
 536
 611
 575
 555
 636
 606
 573
 649
 622
 571
 639
 609
 552
 608
 564
 492
 533
 497
 425
 460
 443
 384
 413
 416
 359
 384
 408
 356
 367
 407
 355
 363
 413
 364
 355
 421
 377
 355
 428
 392
 361
 437
 405
 368
 440
 413
 367
 443
 419
 368
 438
 419
 371
 433
 424
 368
 415
 419
 372
 409
 421
 371
 392
 423
 372
 379
 429
 384
 371
 433
 384
 371
 439
 397
 371
 440
 399
 371
 448
 413
 369
 448
 420
 373
 448
 424
 372
 438
 436
 384
 448
 442
 397
 449
 453
 403
 431
 448
 385
 395
 432
 378
 379
 431
 384
 372
 434
 393
 367
 440
 408
 406
 520
 560
 605
 697
 622
 446
 385
 270
 187
 268
 295
 307
 417
 438
 399
 455
 465
 423
 468
 481
 438
 463
 496
 452
 465
 513
 468
 466
 527
 483
 469
 544
 508
 487
 563
 537
 508
 588
 559
 529
 615
 600
 558
 637
 621
 575
 645
 634
 575
 630
 624
 563
 591
 582
 511
 515
 518
 439
 441
 457
 391
 387
 427
 371
 358
 415
 371
 348
 415
 375
 348
 417
 384
 348
 422
 396
 350
 427
 404
 355
 432
 408
 359
 424
 414
 363
 416
 414
 363
 402
 414
 366
 388
 415
 367
 377
 428
 369
 371
 428
 378
 364
 429
 387
 363
 436
 398
 364
 436
 407
 368
 440
 414
 365
 437
 420
 367
 441
 421
 371
 432
 426
 375
 423
 423
 376
 408
 429
 384
 405
 445
 400
 408
 463
 415
 404
 463
 407
 384
 448
 400
 371
 443
 407
 376
 448
 415
 370
 444
 418
 377
 476
 496
 526
 671
 697
 611
 527
 388
 240
 240
 249
 243
 330
 415
 395
 418
 473
 427
 428
 492
 451
 437
 511
 475
 448
 523
 487
 457
 533
 508
 470
 548
 528
 486
 559
 543
 501
 572
 568
 523
 581
 591
 549
 595
 614
 572
 609
 633
 583
 599
 635
 575
 572
 612
 543
 510
 551
 485
 440
 487
 432
 385
 444
 403
 355
 428
 395
 352
 419
 394
 343
 411
 397
 346
 407
 403
 354
 399
 399
 355
 392
 410
 361
 384
 418
 367
 376
 419
 370
 365
 425
 376
 361
 432
 388
 361
 432
 395
 359
 433
 403
 358
 433
 412
 359
 433
 414
 363
 429
 413
 359
 417
 412
 359
 407
 411
 364
 395
 422
 368
 384
 425
 376
 371
 429
 384
 371
 435
 391
 370
 439
 400
 370
 448
 413
 384
 457
 435
 395
 472
 448
 400
 459
 434
 376
 427
 424
 370
 422
 419
 372
 409
 419
 371
 395
 424
 387
 431
 533
 564
 626
 671
 549
 392
 335
 223
 184
 271
 291
 319
 441
 436
 399
 481
 464
 420
 494
 481
 435
 501
 496
 448
 499
 505
 460
 500
 517
 472
 502
 527
 485
 508
 551
 505
 515
 578
 537
 533
 608
 575
 560
 636
 602
 572
 647
 621
 575
 647
 611
 556
 612
 573
 501
 547
 507
 436
 472
 449
 385
 420
 415
 359
 389
 407
 355
 369
 404
 352
 364
 411
 359
 359
 419
 376
 356
 427
 385
 359
 433
 401
 361
 435
 409
 366
 441
 420
 368
 441
 419
 367
 431
 419
 369
 423
 419
 369
 409
 415
 368
 396
 424
 376
 383
 427
 376
 373
 432
 384
 372
 437
 391
 371
 441
 404
 374
 445
 409
 369
 448
 420
 374
 446
 423
 373
 440
 428
 377
 441
 436
 387
 441
 448
 402
 436
 444
 387
 404
 430
 377
 384
 432
 384
 376
 436
 393
 370
 439
 399
 384
 480
 483
 527
 672
 639
 536
 477
 327
 204
 251
 245
 243
 364
 408
 389
 449
 455
 420
 462
 477
 435
 464
 497
 451
 464
 511
 463
 462
 523
 481
 465
 540
 505
 483
 561
 532
 500
 579
 555
 519
 603
 587
 551
 632
 617
 572
 639
 633
 580
 631
 625
 571
 604
 600
 529
 533
 535
 459
 457
 473
 406
 398
 438
 379
 365
 423
 375
 350
 420
 379
 347
 419
 387
 347
 421
 397
 350
 427
 406
 360
 430
 411
 359
 423
 415
 363
 413
 414
 367
 408
 419
 371
 388
 420
 369
 374
 423
 371
 370
 423
 384
 367
 431
 391
 366
 433
 396
 361
 436
 404
 364
 439
 416
 368
 435
 415
 367
 436
 420
 369
 428
 419
 367
 415
 422
 370
 401
 419
 374
 391
 438
 387
 391
 454
 409
 400
 464
 417
 391
 451
 401
 368
 435
 401
 364
 439
 415
 369
 448
 420
 368
 435
 431
 410
 523
 594
 615
 663
 588
 401
 315
 252
 185
 225
 308
 319
 371
 448
 411
 407
 475
 440
 420
 497
 463
 435
 514
 476
 445
 523
 498
 457
 534
 515
 472
 547
 534
 487
 553
 551
 507
 563
 572
 531
 575
 598
 557
 596
 625
 575
 595
 637
 583
 581
 632
 573
 543
 594
 527
 480
 527
 469
 414
 471
 427
 373
 437
 401
 354
 423
 399
 352
 415
 399
 347
 403
 401
 348
 395
 399
 353
 385
 412
 360
 375
 415
 365
 371
 415
 369
 368
 425
 380
 359
 429
 387
 364
 432
 397
 359
 435
 408
 359
 433
 412
 361
 429
 413
 362
 423
 411
 360
 413
 412
 364
 403
 414
 368
 391
 421
 371
 384
 427
 376
 371
 431
 387
 371
 435
 396
 373
 445
 407
 376
 448
 415
 384
 464
 439
 396
 473
 453
 404
 463
 454
 391
 435
 428
 370
 415
 421
 376
 409
 423
 373
 393
 428
 376
 387
 470
 472
 543
 691
 659
 587
 526
 355
 230
 262
 239
 252
 387
 412
 391
 475
 457
 414
 486
 480
 431
 492
 487
 448
 487
 500
 454
 487
 511
 470
 496
 527
 481
 496
 547
 503
 503
 571
 532
 519
 601
 569
 549
 631
 603
 575
 651
 625
 579
 655
 627
 575
 639
 608
 534
 575
 539
 463
 492
 469
 404
 423
 423
 367
 385
 408
 356
 359
 399
 349
 351
 405
 357
 348
 412
 368
 343
 415
 379
 348
 423
 391
 351
 427
 399
 355
 429
 409
 360
 427
 409
 358
 417
 411
 364
 408
 409
 359
 398
 414
 363
 381
 415
 365
 371
 423
 371
 361
 428
 380
 362
 428
 386
 358
 430
 396
 362
 436
 403
 364
 436
 416
 368
 435
 418
 366
 427
 415
 368
 424
 421
 374
 418
 423
 373
 403
 430
 387
 406
 450
 402
 404
 461
 415
 393
 454
 408
 369
 435
 393
 365
 435
 399
 365
 440
 411
 369
 439
 418
 389
 503
 555
 589
 689
 647
 492
 395
 287
 187
 224
 273
 287
 363
 433
 395
 412
 468
 424
 415
 483
 443
 425
 504
 467
 440
 515
 487
 453
 527
 503
 464
 540
 519
 480
 555
 543
 499
 567
 565
 523
 581
 591
 549
 594
 615
 572
 593
 630
 575
 591
 628
 569
 558
 600
 530
 489
 533
 467
 423
 480
 423
 375
 444
 404
 355
 423
 397
 345
 415
 393
 344
 412
 398
 349
 407
 401
 350
 391
 399
 353
 388
 408
 358
 373
 416
 363
 363
 419
 369
 368
 424
 378
 359
 427
 387
 358
 429
 393
 355
 431
 403
 360
 432
 409
 357
 428
 412
 357
 423
 412
 359
 411
 409
 361
 399
 409
 360
 386
 413
 363
 372
 415
 367
 368
 425
 384
 368
 436
 387
 363
 438
 399
 371
 452
 419
 384
 464
 437
 391
 460
 431
 374
 431
 416
 359
 414
 412
 364
 410
 411
 364
 396
 411
 368
 404
 481
 487
 571
 664
 590
 465
 397
 248
 188
 244
 241
 267
 399
 406
 385
 469
 449
 406
 485
 466
 421
 489
 479
 433
 492
 491
 441
 489
 499
 455
 492
 518
 471
 500
 534
 487
 504
 559
 519
 516
 587
 551
 538
 615
 587
 564
 638
 605
 568
 638
 607
 551
 615
 575
 507
 555
 513
 438
 479
 452
 385
 427
 420
 359
 395
 401
 352
 367
 397
 347
 353
 404
 353
 351
 409
 363
 356
 422
 376
 352
 424
 388
 355
 430
 399
 359
 433
 407
 360
 432
 413
 363
 426
 412
 359
 421
 416
 362
 411
 413
 363
 395
 413
 364
 380
 415
 363
 368
 420
 370
 359
 424
 384
 360
 429
 387
 364
 433
 395
 362
 438
 412
 365
 440
 415
 368
 437
 423
 371
 434
 427
 384
 433
 441
 391
 436
 434
 380
 399
 415
 365
 380
 419
 369
 369
 427
 378
 361
 429
 388
 377
 486
 503
 553
 679
 617
 488
 428
 285
 185
 243
 251
 262
 384
 413
 382
 443
 452
 406
 451
 467
 423
 451
 482
 437
 459
 500
 451
 455
 511
 463
 459
 530
 491
 471
 548
 513
 487
 567
 548
 511
 596
 579
 541
 624
 606
 559
 635
 621
 572
 628
 615
 556
 596
 582
 511
 523
 515
 444
 440
 457
 391
 384
 415
 361
 353
 407
 358
 341
 409
 365
 337
 409
 376
 339
 416
 384
 344
 415
 391
 345
 419
 402
 351
 422
 406
 356
 411
 408
 355
 399
 403
 356
 385
 408
 359
 371
 413
 361
 364
 420
 373
 357
 421
 376
 355
 428
 384
 358
 428
 391
 353
 429
 401
 357
 430
 407
 360
 428
 414
 361
 415
 411
 360
 413
 411
 361
 403
 413
 366
 392
 424
 372
 384
 425
 376
 371
 437
 396
 380
 455
 419
 395
 467
 428
 391
 455
 418
 367
 440
 412
 359
 436
 413
 359
 427
 415
 365
 415
 419
 394
 483
 560
 595
 670
 644
 488
 371
 300
 194
 199
 289
 303
 341
 444
 412
 391
 472
 439
 412
 491
 463
 423
 504
 478
 435
 511
 493
 448
 520
 507
 460
 523
 521
 476
 529
 538
 495
 535
 565
 524
 547
 595
 549
 569
 624
 575
 575
 636
 591
 574
 638
 589
 551
 608
 552
 494
 542
 487
 424
 476
 437
 375
 439
 410
 353
 415
 399
 347
 400
 396
 343
 388
 396
 347
 373
 399
 352
 364
 405
 356
 355
 416
 368
 359
 423
 377
 356
 428
 387
 357
 432
 397
 357
 433
 405
 359
 433
 414
 359
 428
 413
 359
 428
 415
 363
 412
 413
 363
 399
 413
 365
 388
 418
 365
 371
 423
 376
 367
 430
 384
 364
 433
 388
 363
 435
 397
 365
 440
 408
 368
 440
 414
 367
 441
 427
 376
 436
 424
 372
 427
 435
 392
 441
 446
 401
 432
 448
 391
 400
 427
 369
 369
 423
 375
 365
 431
 387
 362
 435
 396
 367
 459
 471
 505
 670
 690
 630
 583
 423
 255
 269
 243
 224
 335
 389
 376
 434
 449
 408
 438
 469
 424
 448
 487
 441
 452
 501
 453
 449
 515
 474
 457
 534
 502
 474
 551
 521
 488
 569
 551
 516
 595
 582
 543
 620
 611
 568
 632
 625
 575
 626
 623
 571
 605
 608
 541
 543
 555
 480
 465
 491
 424
 403
 443
 384
 363
 428
 380
 351
 423
 384
 348
 419
 387
 347
 423
 400
 349
 421
 399
 353
 419
 411
 361
 420
 414
 359
 412
 409
 363
 398
 415
 367
 385
 424
 372
 377
 430
 380
 367
 430
 385
 362
 431
 389
 361
 436
 398
 363
 438
 411
 367
 441
 417
 369
 437
 420
 367
 427
 421
 368
 417
 423
 371
 413
 419
 369
 397
 424
 374
 388
 430
 384
 379
 438
 392
 372
 443
 406
 379
 456
 423
 396
 469
 438
 398
 469
 435
 384
 448
 423
 372
 435
 421
 369
 423
 424
 370
 416
 421
 385
 447
 523
 551
 633
 639
 513
 392
 319
 205
 188
 270
 280
 317
 436
 418
 398
 478
 453
 418
 495
 473
 429
 507
 487
 444
 514
 499
 456
 514
 513
 462
 514
 521
 476
 515
 539
 500
 519
 563
 521
 536
 595
 556
 558
 621
 579
 569
 639
 596
 567
 636
 594
 550
 611
 561
 497
 547
 504
 432
 483
 451
 387
 443
 419
 359
 407
 403
 352
 391
 397
 347
 377
 400
 348
 361
 408
 356
 357
 415
 372
 355
 421
 380
 359
 431
 391
 362
 435
 399
 361
 438
 408
 362
 435
 413
 368
 431
 415
 364
 415
 412
 362
 415
 417
 365
 408
 414
 368
 391
 419
 371
 380
 427
 375
 371
 431
 385
 364
 433
 394
 365
 440
 399
 367
 439
 408
 366
 440
 414
 367
 448
 423
 377
 443
 435
 390
 449
 448
 397
 432
 432
 376
 405
 419
 369
 387
 423
 375
 384
 432
 384
 373
 440
 411
 423
 552
 587
 615
 665
 548
 372
 318
 227
 184
 279
 318
 327
 440
 445
 399
 467
 468
 415
 472
 478
 433
 469
 494
 448
 467
 508
 460
 470
 521
 473
 471
 538
 495
 484
 558
 525
 504
 583
 557
 527
 609
 589
 556
 633
 617
 570
 646
 628
 575
 637
 615
 555
 593
 574
 498
 518
 501
 432
 436
 445
 384
 384
 424
 368
 359
 415
 360
 349
 415
 371
 348
 415
 377
 348
 420
 388
 347
 425
 399
 355
 429
 408
 358
 424
 410
 355
 420
 412
 361
 411
 413
 362
 399
 411
 363
 384
 416
 366
 369
 419
 369
 359
 423
 377
 358
 428
 384
 360
 432
 394
 359
 433
 401
 362
 435
 411
 362
 433
 417
 364
 428
 415
 363
 414
 415
 366
 411
 414
 363
 398
 420
 371
 389
 428
 376
 384
 436
 391
 385
 455
 415
 400
 471
 436
 398
 464
 415
 371
 440
 409
 368
 439
 415
 366
 433
 419
 365
 423
 428
 399
 503
 575
 605
 670
 639
 481
 364
 287
 191
 209
 295
 307
 352
 442
 412
 397
 474
 440
 416
 491
 463
 427
 507
 484
 439
 515
 494
 451
 525
 511
 464
 527
 523
 478
 535
 544
 500
 543
 563
 522
 553
 591
 551
 567
 624
 575
 579
 635
 587
 574
 633
 583
 547
 608
 543
 492
 539
 485
 424
 475
 435
 372
 433
 407
 353
 413
 404
 347
 405
 398
 343
 394
 395
 347
 384
 398
 351
 370
 408
 357
 362
 415
 365
 352
 419
 380
 359
 428
 388
 355
 427
 391
 355
 429
 399
 354
 428
 403
 356
 423
 406
 353
 412
 405
 356
 399
 405
 354
 395
 401
 355
 384
 409
 358
 371
 417
 364
 359
 420
 372
 360
 425
 385
 359
 431
 395
 361
 433
 399
 362
 435
 409
 366
 437
 415
 364
 432
 422
 369
 425
 420
 370
 420
 431
 387
 424
 445
 400
 423
 451
 396
 393
 432
 373
 366
 425
 384
 363
 431
 391
 362
 435
 403
 365
 448
 449
 477
 619
 674
 635
 649
 496
 311
 280
 236
 202
 299
 361
 360
 419
 448
 403
 429
 469
 423
 431
 485
 435
 440
 502
 462
 448
 517
 477
 453
 532
 495
 467
 550
 523
 487
 567
 550
 506
 583
 577
 535
 609
 603
 560
 624
 622
 573
 615
 624
 573
 600
 614
 551
 548
 569
 497
 473
 508
 439
 407
 455
 397
 367
 430
 385
 352
 419
 385
 348
 421
 391
 348
 421
 401
 350
 417
 402
 345
 406
 403
 356
 409
 408
 358
 399
 407
 358
 384
 411
 363
 374
 419
 369
 363
 424
 384
 359
 425
 385
 356
 428
 391
 359
 431
 398
 357
 432
 408
 357
 429
 407
 360
 422
 411
 361
 412
 410
 359
 401
 412
 361
 397
 413
 365
 384
 419
 368
 374
 425
 376
 367
 432
 390
 365
 437
 401
 369
 441
 409
 371
 449
 425
 386
 465
 448
 399
 470
 451
 395
 448
 430
 367
 415
 416
 365
 401
 417
 368
 385
 419
 367
 384
 437
 417
 482
 602
 621
 608
 608
 432
 274
 255
 195
 188
 309
 352
 356
 456
 429
 403
 480
 467
 423
 489
 483
 434
 487
 496
 444
 487
 504
 457
 481
 515
 470
 482
 540
 493
 491
 560
 511
 507
 583
 551
 534
 611
 575
 551
 633
 606
 566
 639
 615
 567
 636
 606
 543
 590
 560
 488
 519
 495
 424
 451
 440
 378
 401
 412
 355
 372
 404
 354
 355
 412
 361
 347
 414
 371
 347
 419
 377
 352
 427
 391
 358
 433
 403
 364
 436
 412
 361
 430
 415
 365
 423
 415
 365
 412
 415
 368
 407
 413
 365
 391
 420
 368
 384
 424
 374
 367
 425
 384
 362
 433
 391
 364
 435
 399
 368
 438
 404
 368
 441
 415
 367
 441
 420
 367
 436
 421
 369
 424
 415
 367
 413
 424
 377
 409
 444
 397
 421
 455
 404
 404
 448
 386
 371
 433
 387
 365
 440
 398
 367
 441
 406
 367
 444
 426
 413
 535
 595
 608
 662
 563
 375
 313
 231
 181
 240
 295
 313
 394
 441
 401
 423
 467
 426
 430
 487
 448
 438
 503
 464
 448
 517
 480
 455
 531
 502
 468
 547
 522
 482
 559
 545
 504
 575
 569
 526
 589
 595
 554
 612
 617
 569
 614
 623
 575
 597
 619
 559
 557
 583
 511
 483
 521
 454
 414
 466
 411
 373
 436
 390
 355
 428
 392
 348
 423
 397
 352
 424
 404
 351
 419
 408
 352
 407
 407
 364
 403
 413
 363
 399
 413
 365
 387
 421
 372
 376
 428
 378
 369
 432
 388
 363
 434
 395
 368
 438
 404
 368
 439
 407
 367
 440
 416
 367
 439
 421
 367
 427
 419
 368
 415
 417
 368
 403
 418
 370
 391
 423
 375
 396
 432
 380
 379
 435
 389
 377
 448
 401
 375
 448
 414
 384
 458
 431
 395
 478
 453
 405
 473
 448
 388
 448
 423
 371
 429
 425
 373
 419
 423
 376
 402
 422
 375
 410
 496
 500
 585
 696
 628
 509
 431
 271
 195
 255
 251
 284
 411
 419
 398
 479
 459
 420
 494
 480
 431
 497
 492
 441
 508
 499
 454
 505
 513
 467
 504
 525
 481
 504
 543
 499
 511
 568
 527
 525
 596
 561
 547
 624
 589
 569
 647
 614
 575
 649
 615
 565
 632
 590
 525
 571
 533
 455
 495
 468
 401
 433
 423
 368
 409
 411
 359
 387
 407
 360
 369
 413
 364
 359
 417
 374
 359
 428
 385
 358
 430
 396
 359
 434
 401
 364
 440
 411
 367
 441
 418
 369
 433
 415
 369
 422
 419
 366
 409
 416
 366
 396
 415
 367
 390
 420
 371
 380
 427
 377
 371
 431
 387
 368
 436
 396
 369
 440
 403
 365
 439
 413
 367
 439
 413
 366
 439
 419
 369
 433
 423
 373
 423
 422
 376
 414
 426
 377
 402
 434
 389
 403
 455
 408
 413
 468
 415
 403
 461
 409
 380
 441
 399
 370
 440
 409
 372
 442
 417
 369
 440
 420
 390
 507
 554
 590
 704
 666
 511
 415
 304
 191
 219
 271
 288
 357
 440
 401
 407
 470
 427
 418
 489
 448
 432
 503
 469
 441
 517
 487
 455
 534
 508
 467
 542
 523
 480
 551
 543
 504
 562
 567
 526
 583
 593
 553
 597
 615
 573
 604
 633
 581
 589
 632
 575
 560
 608
 543
 503
 547
 484
 432
 483
 427
 385
 446
 407
 364
 429
 401
 354
 420
 399
 352
 416
 402
 352
 399
 401
 351
 396
 406
 359
 392
 411
 363
 382
 415
 369
 370
 423
 375
 364
 429
 388
 362
 433
 397
 363
 436
 403
 368
 435
 409
 363
 440
 414
 363
 432
 415
 365
 422
 415
 365
 414
 415
 368
 399
 417
 372
 384
 424
 371
 384
 424
 375
 374
 436
 388
 369
 440
 395
 369
 441
 407
 372
 448
 420
 374
 448
 426
 384
 456
 443
 397
 463
 451
 403
 452
 448
 385
 417
 419
 367
 396
 420
 371
 384
 428
 376
 371
 432
 387
 384
 480
 482
 543
 697
 662
 568
 501
 335
 209
 252
 239
 244
 375
 407
 384
 456
 452
 409
 460
 471
 424
 469
 481
 435
 467
 495
 449
 463
 509
 463
 465
 527
 486
 476
 543
 511
 488
 565
 540
 511
 591
 567
 538
 617
 599
 559
 638
 621
 569
 633
 615
 561
 608
 593
 527
 548
 527
 459
 464
 463
 401
 405
 423
 368
 363
 407
 357
 345
 407
 359
 340
 409
 369
 339
 413
 384
 343
 415
 391
 346
 422
 398
 352
 422
 403
 355
 415
 407
 356
 403
 405
 356
 391
 409
 358
 377
 409
 359
 368
 413
 363
 364
 415
 367
 356
 420
 377
 352
 421
 384
 348
 421
 393
 350
 423
 402
 355
 423
 403
 351
 419
 408
 355
 412
 407
 357
 400
 407
 359
 388
 409
 359
 374
 417
 371
 374
 431
 392
 380
 451
 408
 386
 453
 404
 365
 429
 391
 354
 429
 406
 355
 431
 409
 360
 425
 411
 369
 454
 496
 531
 650
 627
 496
 390
 281
 183
 187
 243
 247
 327
 448
 420
 404
 455
 413
 400
 475
 439
 400
 471
 423
 392
 480
 481
 461
 524
 473
 444
 535
 550
 482
 531
 539
 503
 551
 527
 511
 547
 587
 536
 573
 575
 557
 580
 613
 555
 562
 591
 583
 565
 613
 543
 497
 533
 500
 471
 481
 450
 399
 431
 409
 384
 434
 426
 387
 406
 379
 343
 391
 397
 356
 376
 397
 379
 398
 412
 384
 384
 415
 373
 371
 415
 379
 372
 405
 375
 368
 415
 399
 376
 417
 391
 356
 398
 386
 368
 413
 407
 368
 407
 387
 365
 391
 399
 372
 414
 431
 389
 399
 407
 384
 391
 395
 385
 398
 471
 403
 382
 415
 402
 403
 432
 390
 387
 406
 384
 344
 414
 440
 414
 488
 467
 427
 484
 441
 435
 448
 446
 401
 404
 451
 415
 473
 435
 363
 359
 395
 371
 401
 448
 465
 508
 614
 639
 647
 625
 476
 342
 279
 200
 179
 255
 298
 348
 448
 433
 399
 460
 464
 423
 480
 460
 435
 463
 448
 406
 437
 454
 423
 441
 491
 461
 462
 527
 488
 524
 533
 499
 471
 540
 527
 516
 583
 563
 543
 595
 617
 586
 655
 639
 585
 638
 598
 551
 561
 524
 484
 492
 475
 391
 386
 384
 344
 334
 367
 365
 373
 407
 343
 354
 402
 353
 315
 359
 339
 331
 412
 356
 351
 395
 399
 352
 410
 410
 384
 436
 396
 335
 391
 377
 341
 397
 405
 369
 396
 399
 367
 395
 432
 365
 362
 368
 360
 378
 424
 377
 356
 412
 380
 371
 421
 397
 363
 399
 393
 361
 422
 420
 367
 419
 396
 362
 434
 455
 393
 448
 433
 385
 401
 425
 394
 412
 398
 352
 379
 412
 364
 345
 391
 360
 364
 416
 424
 479
 636
 716
 719
 724
 591
 367
 314
 239
 199
 304
 335
 347
 435
 436
 399
 441
 448
 434
 459
 484
 434
 469
 480
 443
 451
 477
 429
 441
 493
 481
 496
 550
 515
 493
 569
 527
 518
 575
 571
 540
 605
 591
 559
 647
 631
 579
 631
 632
 592
 639
 603
 556
 568
 543
 472
 495
 480
 397
 364
 407
 384
 364
 376
 312
 315
 362
 327
 311
 384
 336
 312
 390
 335
 307
 356
 364
 323
 372
 356
 317
 393
 375
 335
 363
 365
 338
 386
 391
 327
 379
 387
 339
 368
 368
 322
 358
 403
 359
 347
 376
 336
 311
 391
 347
 336
 384
 344
 334
 404
 381
 335
 401
 357
 326
 385
 391
 359
 413
 413
 376
 422
 415
 339
 408
 420
 380
 377
 373
 319
 348
 373
 344
 340
 392
 353
 365
 418
 356
 340
 403
 430
 484
 668
 719
 664
 619
 441
 249
 231
 181
 184
 287
 319
 333
 403
 445
 391
 441
 448
 400
 442
 463
 429
 443
 470
 421
 419
 487
 437
 466
 513
 480
 454
 511
 471
 439
 543
 535
 529
 608
 575
 536
 603
 587
 547
 630
 622
 583
 639
 633
 571
 608
 600
 529
 534
 499
 448
 439
 464
 398
 397
 433
 374
 335
 368
 312
 291
 347
 316
 311
 384
 340
 304
 378
 356
 310
 384
 353
 311
 384
 375
 327
 385
 376
 328
 376
 381
 329
 377
 367
 335
 377
 420
 358
 350
 364
 324
 340
 378
 327
 307
 377
 355
 342
 403
 339
 304
 371
 365
 339
 399
 377
 324
 399
 385
 343
 411
 398
 351
 415
 409
 368
 400
 384
 324
 384
 412
 356
 351
 371
 316
 338
 363
 327
 339
 401
 368
 384
 508
 568
 633
 713
 628
 454
 368
 207
 175
 197
 239
 251
 376
 398
 379
 438
 435
 407
 448
 448
 401
 432
 460
 420
 448
 487
 435
 459
 504
 460
 480
 543
 494
 471
 528
 496
 476
 575
 551
 539
 591
 575
 547
 627
 609
 575
 631
 625
 583
 652
 632
 540
 569
 543
 477
 499
 492
 419
 428
 438
 384
 373
 397
 319
 310
 358
 333
 327
 390
 346
 327
 388
 349
 313
 384
 365
 329
 402
 360
 316
 385
 387
 340
 415
 399
 347
 397
 403
 339
 390
 392
 347
 380
 384
 333
 358
 391
 335
 351
 407
 376
 356
 396
 344
 338
 422
 388
 346
 415
 375
 349
 423
 387
 328
 420
 420
 384
 427
 408
 367
 435
 419
 352
 390
 386
 334
 375
 413
 373
 384
 385
 327
 363
 415
 357
 384
 493
 547
 639
 716
 624
 463
 407
 263
 183
 230
 232
 255
 396
 414
 384
 444
 448
 396
 465
 450
 397
 455
 470
 431
 475
 505
 433
 470
 487
 464
 474
 507
 460
 460
 531
 509
 519
 575
 543
 521
 608
 567
 527
 619
 627
 590
 671
 628
 584
 649
 622
 541
 595
 565
 502
 526
 504
 424
 446
 429
 359
 381
 391
 339
 348
 390
 332
 338
 380
 346
 333
 391
 335
 309
 375
 343
 326
 407
 367
 335
 385
 363
 313
 411
 400
 348
 399
 391
 339
 391
 384
 326
 388
 394
 326
 384
 403
 352
 376
 390
 351
 374
 426
 372
 384
 431
 373
 333
 400
 345
 316
 392
 366
 343
 429
 387
 362
 419
 384
 353
 421
 432
 368
 419
 413
 357
 400
 416
 384
 437
 449
 385
 421
 419
 375
 384
 424
 356
 349
 399
 351
 355
 411
 359
 332
 420
 399
 414
 492
 530
 572
 768
 743
 624
 543
 377
 232
 250
 246
 240
 384
 422
 403
 427
 432
 415
 455
 484
 428
 451
 496
 449
 464
 534
 483
 467
 513
 471
 463
 531
 488
 472
 543
 539
 527
 581
 518
 490
 593
 615
 587
 638
 604
 575
 617
 624
 573
 624
 636
 583
 597
 595
 537
 531
 527
 462
 449
 471
 400
 355
 384
 344
 352
 401
 372
 346
 395
 359
 327
 400
 358
 318
 359
 371
 325
 388
 384
 344
 392
 415
 351
 391
 376
 328
 384
 386
 325
 347
 359
 337
 364
 401
 367
 359
 399
 368
 360
 412
 358
 331
 391
 368
 338
 381
 346
 355
 425
 417
 369
 403
 384
 324
 394
 377
 355
 395
 399
 353
 397
 404
 379
 405
 428
 389
 425
 430
 390
 385
 415
 399
 416
 452
 396
 392
 446
 414
 410
 431
 388
 372
 437
 425
 397
 409
 392
 370
 455
 453
 421
 473
 481
 504
 606
 698
 705
 689
 575
 392
 331
 279
 243
 312
 382
 394
 436
 482
 468
 451
 485
 462
 461
 515
 483
 472
 492
 471
 484
 560
 542
 498
 527
 519
 503
 551
 543
 511
 573
 571
 580
 611
 632
 587
 636
 632
 614
 621
 647
 608
 613
 662
 632
 632
 666
 612
 591
 587
 516
 480
 501
 460
 430
 446
 417
 380
 443
 455
 418
 432
 382
 359
 419
 412
 374
 403
 411
 384
 420
 415
 387
 415
 431
 405
 420
 433
 390
 403
 451
 425
 407
 442
 413
 420
 463
 416
 390
 440
 429
 431
 482
 475
 462
 519
 509
 464
 482
 455
 421
 462
 471
 442
 473
 454
 419
 448
 476
 437
 451
 464
 429
 435
 465
 407
 392
 447
 425
 401
 444
 423
 415
 493
 436
 389
 448
 424
 389
 441
 409
 371
 433
 417
 374
 435
 424
 379
 428
 428
 387
 434
 461
 471
 568
 651
 591
 536
 434
 287
 227
 236
 206
 259
 381
 384
 387
 463
 439
 420
 492
 467
 432
 499
 465
 424
 499
 478
 448
 508
 491
 455
 519
 524
 470
 511
 508
 475
 519
 548
 508
 524
 548
 523
 537
 615
 561
 559
 611
 569
 558
 615
 567
 540
 599
 555
 499
 548
 491
 419
 469
 426
 363
 425
 388
 327
 385
 367
 312
 358
 352
 312
 356
 364
 304
 340
 364
 312
 330
 363
 313
 317
 371
 333
 319
 379
 335
 321
 387
 347
 323
 384
 351
 319
 401
 377
 335
 386
 356
 318
 391
 387
 325
 373
 371
 323
 376
 370
 327
 366
 376
 324
 344
 377
 333
 341
 377
 327
 330
 391
 352
 340
 404
 375
 355
 419
 384
 358
 415
 365
 325
 389
 375
 329
 391
 373
 327
 385
 369
 321
 368
 368
 334
 407
 469
 532
 636
 647
 525
 413
 319
 195
 181
 224
 225
 271
 386
 368
 357
 429
 403
 385
 457
 430
 391
 464
 454
 409
 473
 447
 403
 476
 469
 438
 486
 487
 455
 503
 511
 464
 492
 519
 488
 507
 561
 511
 535
 587
 553
 552
 608
 568
 554
 613
 566
 523
 569
 516
 456
 504
 463
 397
 448
 407
 347
 397
 367
 317
 367
 360
 314
 354
 352
 300
 333
 343
 297
 319
 345
 313
 326
 372
 313
 305
 371
 332
 317
 377
 335
 313
 380
 343
 317
 384
 350
 307
 384
 356
 318
 384
 365
 320
 372
 363
 307
 368
 359
 324
 365
 359
 320
 350
 373
 323
 338
 368
 323
 323
 376
 336
 326
 391
 344
 312
 384
 352
 334
 395
 372
 335
 403
 372
 335
 411
 398
 353
 419
 412
 363
 416
 399
 343
 373
 368
 319
 364
 371
 328
 352
 372
 331
 343
 385
 348
 373
 483
 535
 609
 689
 593
 448
 368
 241
 181
 232
 245
 255
 377
 384
 358
 425
 412
 373
 435
 437
 396
 439
 441
 392
 423
 453
 417
 438
 475
 429
 448
 497
 460
 454
 510
 472
 467
 537
 505
 498
 568
 546
 515
 591
 572
 537
 608
 588
 547
 611
 588
 527
 575
 551
 480
 504
 473
 413
 434
 420
 355
 368
 380
 324
 334
 371
 324
 319
 367
 323
 313
 376
 337
 318
 384
 348
 318
 384
 355
 319
 389
 364
 319
 387
 366
 327
 386
 379
 329
 384
 384
 333
 380
 373
 325
 359
 367
 321
 348
 378
 335
 341
 387
 339
 333
 389
 354
 332
 396
 351
 327
 395
 368
 335
 399
 365
 323
 395
 376
 328
 393
 384
 340
 399
 393
 343
 391
 385
 336
 373
 384
 338
 370
 391
 355
 371
 407
 357
 370
 425
 384
 371
 428
 378
 348
 406
 369
 340
 409
 375
 337
 408
 378
 335
 405
 385
 356
 448
 472
 513
 648
 654
 564
 480
 358
 221
 208
 223
 211
 280
 371
 357
 384
 435
 394
 389
 451
 415
 404
 471
 448
 415
 488
 463
 428
 495
 470
 433
 509
 497
 457
 526
 511
 472
 532
 531
 493
 547
 553
 511
 553
 575
 542
 563
 593
 543
 557
 605
 553
 543
 585
 524
 485
 523
 463
 423
 480
 423
 377
 428
 390
 344
 409
 384
 330
 391
 371
 328
 384
 379
 331
 384
 384
 336
 375
 384
 345
 380
 399
 345
 353
 396
 348
 351
 405
 364
 348
 413
 372
 343
 408
 371
 352
 417
 384
 344
 412
 384
 339
 414
 390
 352
 406
 391
 348
 398
 399
 347
 393
 392
 346
 387
 395
 355
 375
 403
 356
 365
 410
 369
 366
 419
 371
 355
 423
 392
 370
 443
 414
 379
 448
 412
 376
 439
 413
 367
 427
 403
 356
 413
 404
 353
 401
 395
 351
 389
 416
 402
 491
 582
 615
 647
 621
 439
 309
 271
 192
 191
 294
 315
 342
 437
 412
 388
 459
 437
 408
 480
 457
 424
 499
 480
 433
 497
 489
 443
 504
 501
 459
 508
 513
 480
 512
 535
 492
 511
 561
 522
 535
 601
 556
 555
 613
 574
 561
 632
 583
 558
 624
 585
 543
 593
 546
 481
 531
 481
 417
 455
 419
 364
 411
 393
 338
 380
 376
 335
 373
 384
 340
 363
 385
 335
 344
 385
 341
 344
 398
 359
 340
 407
 368
 353
 416
 374
 344
 406
 377
 340
 409
 384
 344
 409
 389
 341
 399
 388
 332
 390
 396
 353
 396
 390
 343
 384
 390
 343
 368
 400
 351
 362
 405
 357
 347
 406
 366
 349
 420
 378
 351
 417
 384
 350
 415
 396
 353
 423
 401
 353
 423
 406
 359
 420
 409
 359
 412
 415
 377
 415
 431
 387
 419
 433
 382
 391
 418
 359
 357
 411
 369
 360
 421
 384
 357
 410
 371
 349
 439
 451
 472
 629
 684
 639
 636
 480
 306
 289
 246
 207
 308
 359
 355
 413
 423
 388
 419
 451
 412
 427
 464
 423
 437
 500
 455
 448
 508
 463
 445
 517
 486
 463
 540
 511
 481
 556
 540
 503
 583
 567
 527
 593
 591
 551
 621
 620
 568
 611
 609
 564
 595
 600
 542
 543
 559
 496
 479
 504
 435
 411
 454
 393
 363
 432
 384
 356
 412
 371
 344
 413
 385
 343
 415
 390
 349
 417
 405
 364
 409
 403
 355
 409
 411
 360
 399
 399
 355
 387
 407
 359
 384
 420
 368
 361
 407
 363
 356
 417
 384
 358
 432
 389
 360
 424
 391
 358
 428
 404
 365
 432
 404
 356
 421
 409
 359
 411
 408
 358
 401
 403
 362
 391
 409
 368
 393
 423
 376
 378
 423
 375
 373
 430
 387
 369
 432
 389
 374
 446
 422
 387
 458
 434
 399
 470
 444
 397
 456
 427
 373
 432
 409
 359
 416
 414
 364
 407
 415
 370
 387
 417
 404
 482
 608
 643
 671
 662
 494
 345
 312
 224
 207
 320
 339
 353
 448
 431
 401
 477
 451
 419
 492
 488
 445
 507
 494
 447
 507
 505
 462
 502
 509
 469
 502
 529
 487
 508
 550
 510
 515
 575
 541
 535
 601
 563
 555
 632
 603
 584
 647
 610
 572
 633
 601
 547
 602
 566
 498
 537
 497
 423
 464
 440
 384
 420
 410
 359
 392
 396
 345
 369
 397
 353
 363
 408
 362
 358
 414
 373
 356
 425
 387
 364
 425
 391
 364
 428
 396
 365
 432
 409
 364
 427
 409
 356
 419
 412
 369
 415
 408
 359
 402
 409
 363
 393
 413
 368
 384
 419
 366
 368
 418
 374
 367
 432
 390
 363
 431
 395
 376
 441
 412
 375
 440
 407
 372
 437
 415
 370
 435
 428
 380
 440
 438
 397
 450
 452
 411
 436
 448
 386
 397
 432
 380
 390
 428
 379
 377
 431
 387
 372
 439
 405
 400
 499
 525
 575
 697
 639
 518
 455
 325
 218
 271
 273
 279
 392
 423
 406
 463
 466
 419
 460
 480
 437
 463
 496
 446
 461
 508
 469
 469
 526
 481
 482
 543
 509
 486
 557
 536
 511
 587
 561
 534
 606
 591
 560
 632
 619
 577
 638
 629
 584
 636
 631
 575
 608
 590
 527
 541
 537
 468
 463
 482
 417
 403
 441
 387
 372
 427
 387
 364
 432
 384
 354
 427
 391
 363
 434
 411
 371
 440
 415
 376
 441
 423
 384
 436
 427
 371
 417
 422
 378
 420
 423
 379
 402
 423
 373
 388
 430
 389
 389
 448
 396
 371
 435
 404
 374
 448
 410
 375
 443
 414
 379
 453
 427
 384
 448
 427
 384
 448
 435
 388
 440
 436
 391
 432
 449
 414
 439
 464
 409
 424
 448
 391
 388
 434
 387
 378
 440
 399
 377
 448
 405
 387
 455
 435
 441
 575
 639
 655
 691
 569
 391
 335
 259
 202
 288
 339
 348
 425
 451
 413
 451
 471
 430
 453
 487
 444
 453
 509
 480
 470
 532
 487
 472
 539
 502
 483
 553
 533
 505
 579
 551
 514
 599
 588
 551
 623
 617
 575
 631
 633
 593
 647
 639
 591
 617
 613
 561
 572
 583
 513
 498
 515
 448
 424
 460
 405
 378
 435
 395
 368
 431
 395
 358
 415
 392
 353
 433
 408
 363
 430
 413
 370
 423
 411
 364
 411
 424
 377
 417
 417
 365
 399
 415
 377
 391
 427
 384
 384
 431
 385
 372
 431
 393
 370
 439
 409
 379
 441
 405
 365
 441
 414
 377
 445
 419
 376
 435
 420
 371
 424
 420
 375
 419
 423
 376
 399
 423
 376
 391
 425
 380
 392
 439
 395
 402
 467
 423
 408
 467
 423
 393
 448
 408
 363
 432
 405
 368
 441
 422
 371
 435
 415
 374
 439
 461
 492
 626
 704
 659
 620
 499
 328
 262
 255
 220
 273
 379
 376
 391
 457
 418
 407
 478
 450
 426
 497
 463
 440
 515
 489
 451
 522
 504
 463
 531
 521
 480
 540
 532
 492
 547
 558
 524
 566
 575
 536
 569
 601
 560
 575
 626
 583
 585
 637
 590
 567
 625
 572
 527
 572
 514
 464
 506
 449
 395
 449
 413
 357
 420
 396
 343
 406
 395
 351
 400
 396
 348
 384
 391
 347
 385
 408
 355
 374
 399
 355
 362
 409
 364
 358
 420
 378
 359
 426
 389
 368
 428
 401
 363
 430
 395
 348
 419
 400
 361
 423
 409
 359
 416
 405
 359
 399
 399
 360
 396
 412
 362
 377
 408
 359
 376
 411
 363
 359
 416
 375
 361
 426
 387
 364
 428
 391
 364
 432
 411
 376
 443
 424
 375
 451
 435
 394
 451
 435
 384
 425
 412
 361
 401
 406
 360
 384
 404
 357
 369
 411
 363
 362
 428
 417
 488
 624
 664
 651
 650
 477
 313
 287
 225
 198
 321
 356
 368
 452
 441
 391
 454
 451
 409
 467
 463
 424
 467
 475
 436
 467
 496
 450
 467
 511
 463
 467
 540
 501
 493
 553
 518
 503
 579
 546
 527
 605
 580
 550
 625
 608
 568
 636
 613
 561
 619
 597
 541
 573
 547
 474
 492
 480
 407
 426
 423
 369
 377
 399
 352
 357
 399
 352
 344
 399
 361
 344
 408
 367
 340
 407
 379
 346
 414
 384
 348
 415
 395
 353
 423
 404
 352
 405
 399
 351
 397
 398
 351
 387
 399
 355
 374
 407
 360
 367
 408
 360
 364
 415
 370
 351
 413
 376
 355
 421
 383
 353
 421
 398
 359
 432
 404
 359
 428
 407
 368
 423
 408
 353
 403
 403
 356
 399
 403
 358
 385
 408
 364
 380
 423
 384
 388
 448
 403
 389
 448
 403
 372
 432
 388
 361
 427
 395
 358
 427
 399
 360
 425
 413
 365
 432
 439
 454
 571
 655
 624
 615
 487
 312
 252
 223
 188
 243
 344
 352
 379
 445
 408
 396
 463
 433
 412
 483
 451
 426
 499
 472
 437
 507
 485
 450
 519
 504
 462
 527
 526
 484
 537
 539
 499
 554
 562
 527
 560
 588
 551
 575
 611
 568
 570
 618
 569
 557
 611
 558
 518
 563
 503
 459
 512
 460
 399
 449
 411
 360
 422
 391
 345
 408
 385
 334
 390
 386
 339
 383
 391
 347
 384
 393
 348
 366
 401
 355
 360
 410
 359
 359
 414
 371
 359
 425
 390
 359
 427
 397
 364
 432
 398
 353
 423
 403
 360
 423
 403
 353
 415
 405
 359
 409
 408
 358
 400
 409
 365
 386
 406
 359
 373
 416
 368
 368
 424
 379
 363
 428
 387
 370
 433
 398
 375
 449
 422
 389
 464
 440
 399
 461
 432
 367
 421
 409
 360
 407
 403
 361
 406
 407
 368
 396
 415
 377
 432
 516
 551
 639
 689
 575
 423
 349
 228
 185
 265
 279
 311
 426
 419
 393
 470
 449
 416
 485
 473
 432
 493
 481
 439
 496
 492
 449
 491
 505
 467
 494
 522
 480
 508
 541
 499
 513
 568
 531
 540
 608
 568
 553
 625
 599
 575
 639
 614
 575
 645
 612
 561
 617
 575
 508
 550
 511
 442
 474
 448
 385
 415
 417
 364
 395
 400
 346
 361
 398
 356
 356
 403
 353
 351
 411
 370
 353
 418
  37
